% Swarm Virtual Observatory Model
% VO v0108 computed by Magnus Hammer, DTU; prepped by Will Brown, BGS
%  -Swarm Level 1b MAG-L version 0505, from 2013-11-29 to 2018-08-31, 15 sec data sampling rate
%  -Gross outliers deviating more than 500nT from CHAOS-6-x7 removed
%  -Dark time (max 10deg above horizon)
%  -Geomagnetically quiet conditions (kp<30,dDst<3,Em<0.8,Bz>0nT,abs(By)<10nT)
%  -Estimates of CHAOS-6-x7 crustal field for SH degree n=20-120 (static part) removed
%  -300 globally distributed VOs using an equal area grid (Leopardi 2006)
%  -VO data search range is 700km around each VO location
%  -VO data are collected for 4 months at a time
%  -VO altitudes are 490km during Swarm period
% time  |  theta  |     phi     |    r     |        Br             Bt            Bp     |
%       |  [deg]  |    [deg]    |   [km]   |                 NEC frame [nT]             |
2014.00	   0.00000	   0.00000	 6861.20	-46060.92575	 -1172.47731	 99999.00000
2014.00	  12.70827	  25.71429	 6861.20	-44404.05732	 -5938.36410	  1036.52907
2014.00	  12.70827	  77.14286	 6861.20	-46594.60009	 -3621.08464	  1711.53768
2014.00	  12.70827	 128.57143	 6861.20	-47162.03743	 -3766.89618	  -487.36339
2014.00	  12.70827	 180.00000	 6861.20	-46283.70058	 -4933.58204	   583.78257
2014.00	  12.70827	-128.57143	 6861.20	-46421.29615	 -2649.64960	  1138.64702
2014.00	  12.70827	 -77.14286	 6861.20	-45822.69096	 -2181.37240	 -1844.42192
2014.00	  12.70827	 -25.71429	 6861.20	-44210.09408	 -5273.69420	 -2130.10994
2014.00	  24.74016	   3.95604	 6861.20	-40993.29409	-10479.27485	  -326.90657
2014.00	  24.74016	  31.64835	 6861.20	-42163.13153	-10021.89549	  1742.96648
2014.00	  24.74016	  59.34066	 6861.20	-44673.55257	 -8875.40777	  2574.78757
2014.00	  24.74016	  87.03297	 6861.20	-47141.50798	 -7873.73901	  1303.04351
2014.00	  24.74016	 114.72527	 6861.20	-47358.11764	 -8363.22665	 -1192.51870
2014.00	  24.74016	 142.41758	 6861.20	-45264.04477	-10284.90543	 -1969.00270
2014.00	  24.74016	 170.10989	 6861.20	-43452.93359	-11436.18444	   -65.30970
2014.00	  24.74016	-162.19780	 6861.20	-43611.45202	-10429.55120	  2358.27186
2014.00	  24.74016	-134.50549	 6861.20	-45217.64036	 -7889.99205	  2987.49773
2014.00	  24.74016	-106.81319	 6861.20	-46473.85076	 -5669.89529	  1033.98072
2014.00	  24.74016	 -79.12088	 6861.20	-45868.12497	 -5585.86502	 -2095.94214
2014.00	  24.74016	 -51.42857	 6861.20	-43617.32084	 -7624.78836	 -3691.01521
2014.00	  24.74016	 -23.73626	 6861.20	-41538.94760	 -9726.17117	 -2649.20037
2014.00	  36.47600	  -2.96703	 6861.20	-36730.69746	-14915.03730	  -815.17275
2014.00	  36.47600	  17.03297	99999.00	 99999.00000	 99999.00000	 99999.00000
2014.00	  36.47600	  37.03297	 6861.20	-38952.32434	-14433.22027	  1956.24444
2014.00	  36.47600	  57.03297	 6861.20	-41219.06331	-14148.49176	  2411.12693
2014.00	  36.47600	  77.03297	 6861.20	-43683.48865	-13994.11968	  1817.76954
2014.00	  36.47600	  97.03297	 6861.20	-45082.44988	-14085.10374	    44.45989
2014.00	  36.47600	 117.03297	 6861.20	-44188.99706	-14753.23739	 -2091.66212
2014.00	  36.47600	 137.03297	 6861.20	-41260.95575	-15952.72539	 -2860.39906
2014.00	  36.47600	 157.03297	 6861.20	-38305.89433	-16809.55170	 -1523.37910
2014.00	  36.47600	 177.03297	 6861.20	-37015.91991	-16660.55939	   898.58506
2014.00	  36.47600	-162.96703	 6861.20	-37770.68214	-15576.95135	  3076.80201
2014.00	  36.47600	-142.96703	 6861.20	-40039.27993	-13884.41897	  4149.14042
2014.00	  36.47600	-122.96703	 6861.20	-42734.95573	-11962.76700	  3570.23983
2014.00	  36.47600	-102.96703	 6861.20	-44495.20692	-10451.65369	  1332.55873
2014.00	  36.47600	 -82.96703	 6861.20	-44267.27498	-10170.01846	 -1774.56352
2014.00	  36.47600	 -62.96703	 6861.20	-41981.10156	-11381.54308	 -4032.87096
2014.00	  36.47600	 -42.96703	 6861.20	-39117.65564	-13169.70971	 -4213.73574
2014.00	  36.47600	 -22.96703	 6861.20	-37213.21680	-14470.62459	 -2768.87461
2014.00	  48.17388	  -6.88008	 6861.20	-30170.98717	-19665.13116	 -1101.89725
2014.00	  48.17388	   8.77210	99999.00	 99999.00000	 99999.00000	 99999.00000
2014.00	  48.17388	  24.42427	 6861.20	-32040.47692	-19536.18402	  1252.49913
2014.00	  48.17388	  40.07645	 6861.20	-33546.85466	-19434.82574	  1758.38326
2014.00	  48.17388	  55.72862	 6861.20	-35256.34694	-19648.08957	  1800.57256
2014.00	  48.17388	  71.38079	 6861.20	-36951.15382	-20153.01800	  1449.51529
2014.00	  48.17388	  87.03297	 6861.20	-38296.20483	-20638.47630	   609.71100
2014.00	  48.17388	 102.68514	 6861.20	-38626.98556	-20938.92254	  -801.08368
2014.00	  48.17388	 118.33731	 6861.20	-37241.78191	-21170.95199	 -2325.54659
2014.00	  48.17388	 133.98949	 6861.20	-34331.31800	-21375.28873	 -2885.01909
2014.00	  48.17388	 149.64166	 6861.20	-31291.85127	-21269.71316	 -1933.09061
2014.00	  48.17388	 165.29384	 6861.20	-29424.45673	-20667.19749	   -41.96368
2014.00	  48.17388	-179.05399	 6861.20	-29150.04634	-19736.50651	  1919.59669
2014.00	  48.17388	-163.40182	 6861.20	-30234.93913	-18806.97519	  3426.74548
2014.00	  48.17388	-147.74964	 6861.20	-32329.99073	-17977.30493	  4359.14893
2014.00	  48.17388	-132.09747	 6861.20	-35047.59885	-17106.88241	  4494.57082
2014.00	  48.17388	-116.44529	 6861.20	-37732.38812	-16143.36049	  3570.13650
2014.00	  48.17388	-100.79312	 6861.20	-39572.60542	-15288.30190	  1508.81007
2014.00	  48.17388	 -85.14095	 6861.20	-39679.28225	-14977.37341	 -1347.62648
2014.00	  48.17388	 -69.48877	 6861.20	-37719.94548	-15528.20834	 -3866.61051
2014.00	  48.17388	 -53.83660	 6861.20	-34696.18040	-16751.85254	 -4915.86618
2014.00	  48.17388	 -38.18442	 6861.20	-32014.32217	-18127.38956	 -4383.39053
2014.00	  48.17388	 -22.53225	 6861.20	-30460.38004	-19179.43795	 -2872.41339
2014.00	  60.04178	  -8.90906	 6861.20	-20411.99728	-23822.02539	 -1524.14552
2014.00	  60.04178	   4.42427	 6861.20	-21060.66013	-24219.98400	  -122.21302
2014.00	  60.04178	  17.75760	99999.00	 99999.00000	 99999.00000	 99999.00000
2014.00	  60.04178	  31.09094	 6861.20	-23617.39619	-24403.77821	  1375.17775
2014.00	  60.04178	  44.42427	 6861.20	-25138.29218	-24525.73797	  1347.03991
2014.00	  60.04178	  57.75760	 6861.20	-26306.63789	-25045.78256	   950.93957
2014.00	  60.04178	  71.09094	 6861.20	-27150.54548	-25843.60214	   569.36863
2014.00	  60.04178	  84.42427	 6861.20	-27807.37365	-26593.37591	   164.42630
2014.00	  60.04178	  97.75760	 6861.20	-28098.66981	-26992.72513	  -464.24005
2014.00	  60.04178	 111.09094	 6861.20	-27555.57232	-26910.82326	 -1390.58612
2014.00	  60.04178	 124.42427	 6861.20	-25804.89373	-26467.28181	 -2127.91986
2014.00	  60.04178	 137.75760	 6861.20	-23378.48761	-25707.11181	 -1914.94608
2014.00	  60.04178	 151.09094	 6861.20	-21396.20213	-24615.36467	  -708.65046
2014.00	  60.04178	 164.42427	 6861.20	-20550.95735	-23323.32672	   922.20199
2014.00	  60.04178	 177.75760	 6861.20	-20884.98930	-22063.79624	  2361.44366
2014.00	  60.04178	-168.90906	 6861.20	-21970.15140	-21124.49479	  3310.83236
2014.00	  60.04178	-155.57573	 6861.20	-23442.93250	-20613.62069	  3932.95817
2014.00	  60.04178	-142.24240	 6861.20	-25327.28095	-20355.14343	  4340.81952
2014.00	  60.04178	-128.90906	 6861.20	-27595.78290	-20131.16960	  4315.66266
2014.00	  60.04178	-115.57573	 6861.20	-29924.84799	-19811.43552	  3614.71700
2014.00	  60.04178	-102.24240	 6861.20	-31780.69716	-19374.27567	  2042.12089
2014.00	  60.04178	 -88.90906	 6861.20	-32404.50590	-18977.25658	  -363.04835
2014.00	  60.04178	 -75.57573	 6861.20	-31228.86401	-18906.92846	 -2996.84074
2014.00	  60.04178	 -62.24240	 6861.20	-28526.12566	-19407.34565	 -4891.75872
2014.00	  60.04178	 -48.90906	 6861.20	-25286.60027	-20486.86485	 -5490.30798
2014.00	  60.04178	 -35.57573	 6861.20	-22514.64050	-21841.09388	 -4808.12103
2014.00	  60.04178	 -22.24240	 6861.20	-20817.44770	-23043.67666	 -3289.79141
2014.00	  72.03865	  -9.57573	 6861.20	 -7878.15897	-25635.17427	 -2202.24002
2014.00	  72.03865	   2.42427	 6861.20	 -8125.36477	-26406.18768	  -767.61264
2014.00	  72.03865	  14.42427	99999.00	 99999.00000	 99999.00000	 99999.00000
2014.00	  72.03865	  26.42427	 6861.20	-10262.96318	-27354.92000	   992.60443
2014.00	  72.03865	  38.42427	 6861.20	-11925.37824	-27683.07166	  1056.96287
2014.00	  72.03865	  50.42427	 6861.20	-13171.03439	-28245.52413	   476.72030
2014.00	  72.03865	  62.42427	 6861.20	-13704.11948	-29102.65299	  -128.40675
2014.00	  72.03865	  74.42427	 6861.20	-13864.23316	-30074.72706	  -439.14224
2014.00	  72.03865	  86.42427	 6861.20	-13880.52021	-30885.77065	  -513.68197
2014.00	  72.03865	  98.42427	 6861.20	-13884.17459	-31202.73705	  -514.48821
2014.00	  72.03865	 110.42427	 6861.20	-13715.52054	-30886.09431	  -765.25876
2014.00	  72.03865	 122.42427	 6861.20	-12882.35044	-30100.48783	 -1079.07547
2014.00	  72.03865	 134.42427	 6861.20	-11604.57458	-28978.24654	  -772.44293
2014.00	  72.03865	 146.42427	 6861.20	-10713.68017	-27598.82316	   250.99733
2014.00	  72.03865	 158.42427	 6861.20	-10666.40024	-26144.76900	  1581.26376
2014.00	  72.03865	 170.42427	 6861.20	-11513.29114	-24800.46281	  2769.20470
2014.00	  72.03865	-177.57573	 6861.20	-12892.11687	-23735.35382	  3459.17642
2014.00	  72.03865	-165.57573	 6861.20	-14252.57976	-23053.37990	  3712.58342
2014.00	  72.03865	-153.57573	 6861.20	-15475.39522	-22696.42006	  3891.12003
2014.00	  72.03865	-141.57573	 6861.20	-16845.44113	-22543.06824	  4071.23317
2014.00	  72.03865	-129.57573	 6861.20	-18471.79399	-22504.34757	  4038.30298
2014.00	  72.03865	-117.57573	 6861.20	-20223.75063	-22452.73805	  3639.15491
2014.00	  72.03865	-105.57573	 6861.20	-21913.87429	-22216.37205	  2689.76923
2014.00	  72.03865	 -93.57573	 6861.20	-23058.37505	-21747.09063	   950.51448
2014.00	  72.03865	 -81.57573	 6861.20	-22968.55014	-21240.60222	 -1432.10271
2014.00	  72.03865	 -69.57573	 6861.20	-21286.75995	-21004.92331	 -3864.20345
2014.00	  72.03865	 -57.57573	 6861.20	-18230.53234	-21318.03011	 -5628.43250
2014.00	  72.03865	 -45.57573	99999.00	 99999.00000	 99999.00000	 99999.00000
2014.00	  72.03865	 -33.57573	 6861.20	-11089.46231	-23461.94658	 -5544.20739
2014.00	  72.03865	 -21.57573	 6861.20	 -8768.09733	-24658.11540	 -3991.09130
2014.00	  84.03646	  -9.76928	 6861.20	  4794.67645	-23513.83404	 -3079.63757
2014.00	  84.03646	   1.84363	 6861.20	  5272.89407	-24436.41411	 -1625.46700
2014.00	  84.03646	  13.45653	99999.00	 99999.00000	 99999.00000	 99999.00000
2014.00	  84.03646	  25.06943	99999.00	 99999.00000	 99999.00000	 99999.00000
2014.00	  84.03646	  36.68234	 6861.20	  2361.70078	-26807.78276	   399.34326
2014.00	  84.03646	  48.29524	 6861.20	  1248.26362	-27870.60269	  -355.00652
2014.00	  84.03646	  59.90814	 6861.20	  1075.90296	-29155.92580	 -1172.09360
2014.00	  84.03646	  71.52105	 6861.20	  1499.18375	-30504.10406	 -1520.59816
2014.00	  84.03646	  83.13395	 6861.20	  2071.24292	-31637.18174	 -1325.08226
2014.00	  84.03646	  94.74685	 6861.20	  2306.20368	-32241.78115	  -692.67831
2014.00	  84.03646	 106.35976	 6861.20	  1977.30846	-32176.38988	  -175.67580
2014.00	  84.03646	 117.97266	 6861.20	  1728.84123	-31582.21638	   -87.50288
2014.00	  84.03646	 129.58556	 6861.20	  1923.96696	-30657.93399	   217.78133
2014.00	  84.03646	 141.19846	 6861.20	  1893.23036	-29523.46444	  1122.98998
2014.00	  84.03646	 152.81137	99999.00	 99999.00000	 99999.00000	 99999.00000
2014.00	  84.03646	 164.42427	 6861.20	  -214.37278	-27221.69905	  3364.83664
2014.00	  84.03646	 176.03717	99999.00	 99999.00000	 99999.00000	 99999.00000
2014.00	  84.03646	-172.34992	 6861.20	 -3835.82240	-25554.63653	  4129.91827
2014.00	  84.03646	-160.73702	 6861.20	 -5198.12986	-24966.45256	  4066.79460
2014.00	  84.03646	-149.12412	 6861.20	 -6381.40233	-24493.87898	  4075.96223
2014.00	  84.03646	-137.51121	 6861.20	 -7637.70973	-24151.30204	  4057.91602
2014.00	  84.03646	-125.89831	 6861.20	 -8959.58601	-23924.64312	  3873.95169
2014.00	  84.03646	-114.28541	 6861.20	-10368.81816	-23706.17596	  3510.30027
2014.00	  84.03646	-102.67250	 6861.20	-11922.40768	-23329.34709	  2722.12632
2014.00	  84.03646	 -91.05960	 6861.20	-13182.31505	-22705.66889	  1123.75616
2014.00	  84.03646	 -79.44670	 6861.20	-13321.48592	-21980.71848	 -1251.20817
2014.00	  84.03646	 -67.83379	99999.00	 99999.00000	 99999.00000	 99999.00000
2014.00	  84.03646	 -56.22089	 6861.20	 -8525.18556	-21250.33502	 -5910.05406
2014.00	  84.03646	 -44.60799	99999.00	 99999.00000	 99999.00000	 99999.00000
2014.00	  84.03646	 -32.99508	 6861.20	    37.05981	-21961.02993	 -6261.68798
2014.00	  84.03646	 -21.38218	 6861.20	  3145.79607	-22654.25383	 -4795.21831
2014.00	  95.96354	  -3.96283	 6861.20	 14582.28449	-18478.80806	 -3162.44523
2014.00	  95.96354	   7.65008	99999.00	 99999.00000	 99999.00000	 99999.00000
2014.00	  95.96354	  19.26298	99999.00	 99999.00000	 99999.00000	 99999.00000
2014.00	  95.96354	  30.87588	99999.00	 99999.00000	 99999.00000	 99999.00000
2014.00	  95.96354	  42.48879	 6861.20	 13489.54170	-22764.24295	 -1371.76044
2014.00	  95.96354	  54.10169	 6861.20	 13830.61851	-24587.14772	 -2453.37903
2014.00	  95.96354	  65.71459	 6861.20	 15124.57694	-26435.30356	 -3053.17938
2014.00	  95.96354	  77.32750	 6861.20	 16695.89120	-28075.53523	 -2848.79658
2014.00	  95.96354	  88.94040	 6861.20	 17817.26607	-29295.36468	 -1836.93383
2014.00	  95.96354	 100.55330	 6861.20	 17805.44456	-29978.57354	  -518.45675
2014.00	  95.96354	 112.16621	 6861.20	 16995.89587	-30133.27180	   291.95278
2014.00	  95.96354	 123.77911	 6861.20	 16347.76972	-29835.66251	   744.28272
2014.00	  95.96354	 135.39201	 6861.20	 15795.57366	-29262.41969	  1547.50066
2014.00	  95.96354	 147.00492	 6861.20	 14743.10377	-28597.49040	  2674.16255
2014.00	  95.96354	 158.61782	 6861.20	 13068.69089	-27939.89716	  3768.46219
2014.00	  95.96354	 170.23072	 6861.20	 10928.63192	-27332.64265	  4537.93559
2014.00	  95.96354	-178.15637	 6861.20	  8708.37180	-26752.80994	  4810.53815
2014.00	  95.96354	-166.54347	 6861.20	  6798.55659	-26125.40429	  4753.95724
2014.00	  95.96354	-154.93057	 6861.20	  5175.87620	-25447.55703	  4677.48481
2014.00	  95.96354	-143.31766	 6861.20	  3613.12878	-24790.97607	  4598.27628
2014.00	  95.96354	-131.70476	 6861.20	  2085.23325	-24215.66407	  4387.96842
2014.00	  95.96354	-120.09186	 6861.20	   633.08794	-23718.41232	  4074.46673
2014.00	  95.96354	-108.47895	 6861.20	  -915.71521	-23248.09873	  3642.52311
2014.00	  95.96354	 -96.86605	 6861.20	 -2645.09566	-22676.23441	  2712.01454
2014.00	  95.96354	 -85.25315	 6861.20	 -3948.47816	-21888.56882	   850.30155
2014.00	  95.96354	 -73.64024	 6861.20	 -3860.82824	-20956.75070	 -1792.22334
2014.00	  95.96354	 -62.02734	 6861.20	 -1830.53258	-20029.26198	 -4434.38649
2014.00	  95.96354	 -50.41444	99999.00	 99999.00000	 99999.00000	 99999.00000
2014.00	  95.96354	 -38.80154	 6861.20	  6171.08433	-18392.23534	 -6607.84710
2014.00	  95.96354	 -27.18863	 6861.20	 10005.51645	-17945.27708	 -5854.95282
2014.00	  95.96354	 -15.57573	 6861.20	 12817.18438	-17993.04797	 -4565.97736
2014.00	 107.96135	  -3.38218	 6861.20	 18694.55220	-12603.51596	 -3560.51023
2014.00	 107.96135	   8.61782	99999.00	 99999.00000	 99999.00000	 99999.00000
2014.00	 107.96135	  20.61782	99999.00	 99999.00000	 99999.00000	 99999.00000
2014.00	 107.96135	  32.61782	 6861.20	 19773.61750	-15080.48786	 -2492.45856
2014.00	 107.96135	  44.61782	 6861.20	 20692.77273	-17030.13594	 -3758.12266
2014.00	 107.96135	  56.61782	 6861.20	 22988.76745	-19082.35411	 -4905.68548
2014.00	 107.96135	  68.61782	 6861.20	 26037.63615	-20978.66296	 -5138.25802
2014.00	 107.96135	  80.61782	 6861.20	 28876.33850	-22606.88241	 -4294.86735
2014.00	 107.96135	  92.61782	 6861.20	 30632.19382	-23982.84870	 -2582.26176
2014.00	 107.96135	 104.61782	 6861.20	 30828.41281	-25111.45508	  -799.80766
2014.00	 107.96135	 116.61782	 6861.20	 30178.20717	-25819.58043	   386.75215
2014.00	 107.96135	 128.61782	 6861.20	 29441.46862	-26019.98405	  1366.90750
2014.00	 107.96135	 140.61782	 6861.20	 28402.42557	-25921.55441	  2568.88097
2014.00	 107.96135	 152.61782	99999.00	 99999.00000	 99999.00000	 99999.00000
2014.00	 107.96135	 164.61782	 6861.20	 24557.99603	-25524.26970	  4859.52601
2014.00	 107.96135	 176.61782	99999.00	 99999.00000	 99999.00000	 99999.00000
2014.00	 107.96135	-171.38218	 6861.20	 19533.81350	-24888.46392	  5614.63692
2014.00	 107.96135	-159.38218	 6861.20	 17225.36379	-24369.55237	  5618.96590
2014.00	 107.96135	-147.38218	 6861.20	 14988.37475	-23780.28266	  5548.92674
2014.00	 107.96135	-135.38218	99999.00	 99999.00000	 99999.00000	 99999.00000
2014.00	 107.96135	-123.38218	 6861.20	 10842.67226	-22581.58071	  4966.13197
2014.00	 107.96135	-111.38218	 6861.20	  8934.45569	-21957.00314	  4547.51494
2014.00	 107.96135	 -99.38218	 6861.20	  6867.29791	-21293.27464	  3833.97652
2014.00	 107.96135	 -87.38218	 6861.20	  4885.68530	-20475.30619	  2289.41143
2014.00	 107.96135	 -75.38218	 6861.20	  3965.33679	-19384.31103	  -249.14296
2014.00	 107.96135	 -63.38218	99999.00	 99999.00000	 99999.00000	 99999.00000
2014.00	 107.96135	 -51.38218	 6861.20	  7669.49781	-16466.11699	 -5036.94867
2014.00	 107.96135	 -39.38218	 6861.20	 11054.09821	-14934.84368	 -5747.32156
2014.00	 107.96135	 -27.38218	 6861.20	 14199.20600	-13680.69407	 -5443.16644
2014.00	 107.96135	 -15.38218	 6861.20	 16790.84497	-12896.97236	 -4629.62531
2014.00	 119.95822	  -1.38218	 6861.20	 19201.26984	 -9168.67859	 -3454.51685
2014.00	 119.95822	  11.95115	99999.00	 99999.00000	 99999.00000	 99999.00000
2014.00	 119.95822	  25.28449	 6861.20	 20529.33640	-10163.95679	 -3830.45875
2014.00	 119.95822	  38.61782	 6861.20	 22414.81117	-11666.62656	 -5415.66688
2014.00	 119.95822	  51.95115	 6861.20	 26072.30212	-13217.34432	 -6999.66989
2014.00	 119.95822	  65.28449	 6861.20	 30863.15524	-14586.89640	 -7486.64942
2014.00	 119.95822	  78.61782	 6861.20	 35466.82611	-15860.94504	 -6547.46761
2014.00	 119.95822	  91.95115	 6861.20	 38838.86411	-17206.97860	 -4484.94192
2014.00	 119.95822	 105.28449	 6861.20	 40407.07016	-18646.36726	 -2101.80394
2014.00	 119.95822	 118.61782	 6861.20	 40602.06821	-19806.71279	  -107.61578
2014.00	 119.95822	 131.95115	 6861.20	 40005.07180	-20456.98249	  1640.05939
2014.00	 119.95822	 145.28449	 6861.20	 38645.15843	-20790.77981	  3335.74067
2014.00	 119.95822	 158.61782	 6861.20	 36502.10286	-21024.52638	  4828.18870
2014.00	 119.95822	 171.95115	 6861.20	 33740.91616	-21211.62322	  5874.58752
2014.00	 119.95822	-174.71551	 6861.20	 30740.69891	-21289.12761	  6396.42613
2014.00	 119.95822	-161.38218	 6861.20	 27771.94883	-21213.99842	  6581.52450
2014.00	 119.95822	-148.04885	 6861.20	 24855.55852	-21039.31187	  6571.91568
2014.00	 119.95822	-134.71551	 6861.20	 22041.00266	-20763.23605	  6364.02073
2014.00	 119.95822	-121.38218	 6861.20	 19309.15272	-20305.05143	  6053.62399
2014.00	 119.95822	-108.04885	 6861.20	 16531.59608	-19676.18818	  5590.73874
2014.00	 119.95822	 -94.71551	 6861.20	 13570.18219	-18944.14600	  4578.79718
2014.00	 119.95822	 -81.38218	 6861.20	 11042.48046	-18024.98598	  2455.89249
2014.00	 119.95822	 -68.04885	 6861.20	 10142.35462	-16675.52172	  -514.10140
2014.00	 119.95822	 -54.71551	 6861.20	 11329.14831	-14883.34965	 -3114.36809
2014.00	 119.95822	 -41.38218	 6861.20	 13674.32648	-12966.91727	 -4419.39108
2014.00	 119.95822	 -28.04885	 6861.20	 16031.12655	-11253.40999	 -4559.99866
2014.00	 119.95822	 -14.71551	 6861.20	 17926.09054	 -9931.77047	 -4106.14237
2014.00	 131.82612	   1.22652	 6861.20	 19112.14130	 -8805.57816	 -3631.71471
2014.00	 131.82612	  16.87869	99999.00	 99999.00000	 99999.00000	 99999.00000
2014.00	 131.82612	  32.53086	 6861.20	 22347.49033	 -9681.03535	 -6655.09491
2014.00	 131.82612	  48.18304	 6861.20	 26917.21685	-10161.11822	 -8763.23032
2014.00	 131.82612	  63.83521	 6861.20	 33094.51406	-10309.26956	 -9580.83496
2014.00	 131.82612	  79.48738	 6861.20	 39311.38872	-10542.77471	 -8520.36503
2014.00	 131.82612	  95.13956	 6861.20	 44184.46744	-11234.68239	 -5964.02051
2014.00	 131.82612	 110.79173	 6861.20	 46937.49705	-12347.13255	 -2807.82094
2014.00	 131.82612	 126.44391	 6861.20	 47655.75468	-13447.05491	   183.98807
2014.00	 131.82612	 142.09608	 6861.20	 46757.32689	-14336.91636	  2821.07384
2014.00	 131.82612	 157.74825	 6861.20	 44571.58285	-15147.06471	  4980.14009
2014.00	 131.82612	 173.40043	 6861.20	 41499.64043	-15945.82619	  6460.79879
2014.00	 131.82612	-170.94740	 6861.20	 38041.66870	-16644.72609	  7244.70062
2014.00	 131.82612	-155.29522	 6861.20	 34539.66777	-17171.54092	  7553.71597
2014.00	 131.82612	-139.64305	 6861.20	 31063.12964	-17497.97527	  7601.76581
2014.00	 131.82612	-123.99088	 6861.20	 27484.13550	-17564.87955	  7494.93773
2014.00	 131.82612	-108.33870	 6861.20	 23540.28775	-17403.46407	  7094.38821
2014.00	 131.82612	 -92.68653	 6861.20	 19366.28288	-17107.44350	  5776.49134
2014.00	 131.82612	 -77.03435	 6861.20	 16077.63657	-16449.06206	  3068.44851
2014.00	 131.82612	 -61.38218	 6861.20	 14945.28779	-15024.11204	  -217.08623
2014.00	 131.82612	 -45.73001	 6861.20	 15825.48245	-12991.34213	 -2566.13687
2014.00	 131.82612	 -30.07783	 6861.20	 17318.90981	-10981.26734	 -3433.64578
2014.00	 131.82612	 -14.42566	 6861.20	 18437.06727	 -9488.88681	 -3504.31302
2014.00	 143.52400	   6.00912	 6861.20	 21065.55754	-10406.21499	 -4725.03682
2014.00	 143.52400	  26.00912	99999.00	 99999.00000	 99999.00000	 99999.00000
2014.00	 143.52400	  46.00912	 6861.20	 28626.48149	 -9157.73974	-10174.92899
2014.00	 143.52400	  66.00912	 6861.20	 35964.26328	 -7486.68484	-11180.21185
2014.00	 143.52400	  86.00912	 6861.20	 43437.83675	 -6040.37090	 -9453.01086
2014.00	 143.52400	 106.00912	 6861.20	 48971.08423	 -5622.74866	 -5591.85160
2014.00	 143.52400	 126.00912	 6861.20	 51403.09438	 -6277.27081	 -1051.59444
2014.00	 143.52400	 146.00912	 6861.20	 50906.73237	 -7595.21340	  2995.72649
2014.00	 143.52400	 166.00912	 6861.20	 48339.69495	 -9280.26565	  5950.46368
2014.00	 143.52400	-173.99088	 6861.20	 44677.48685	-11032.73511	  7709.44484
2014.00	 143.52400	-153.99088	 6861.20	 40604.98258	-12559.23404	  8558.24328
2014.00	 143.52400	-133.99088	 6861.20	 36232.64708	-13774.48966	  8928.70652
2014.00	 143.52400	-113.99088	 6861.20	 31240.51548	-14817.71489	  8802.59125
2014.00	 143.52400	 -93.99088	 6861.20	 25820.32278	-15738.81108	  7352.62631
2014.00	 143.52400	 -73.99088	 6861.20	 21530.14635	-15891.89490	  4069.54066
2014.00	 143.52400	 -53.99088	 6861.20	 19785.16442	-14609.13300	   363.42622
2014.00	 143.52400	 -33.99088	 6861.20	 19868.81574	-12573.48314	 -1957.20588
2014.00	 143.52400	 -13.99088	 6861.20	 20303.13850	-11027.41309	 -3181.03150
2014.00	 155.25984	  14.47066	99999.00	 99999.00000	 99999.00000	 99999.00000
2014.00	 155.25984	  42.16297	99999.00	 99999.00000	 99999.00000	 99999.00000
2014.00	 155.25984	  69.85528	99999.00	 99999.00000	 99999.00000	 99999.00000
2014.00	 155.25984	  97.54759	99999.00	 99999.00000	 99999.00000	 99999.00000
2014.00	 155.25984	 125.23989	99999.00	 99999.00000	 99999.00000	 99999.00000
2014.00	 155.25984	 152.93220	99999.00	 99999.00000	 99999.00000	 99999.00000
2014.00	 155.25984	-179.37549	99999.00	 99999.00000	 99999.00000	 99999.00000
2014.00	 155.25984	-151.68318	99999.00	 99999.00000	 99999.00000	 99999.00000
2014.00	 155.25984	-123.99088	99999.00	 99999.00000	 99999.00000	 99999.00000
2014.00	 155.25984	 -96.29857	99999.00	 99999.00000	 99999.00000	 99999.00000
2014.00	 155.25984	 -68.60626	99999.00	 99999.00000	 99999.00000	 99999.00000
2014.00	 155.25984	 -40.91395	99999.00	 99999.00000	 99999.00000	 99999.00000
2014.00	 155.25984	 -13.22165	99999.00	 99999.00000	 99999.00000	 99999.00000
2014.00	 167.29173	  40.18495	99999.00	 99999.00000	 99999.00000	 99999.00000
2014.00	 167.29173	  91.61352	99999.00	 99999.00000	 99999.00000	 99999.00000
2014.00	 167.29173	 143.04209	99999.00	 99999.00000	 99999.00000	 99999.00000
2014.00	 167.29173	-165.52934	99999.00	 99999.00000	 99999.00000	 99999.00000
2014.00	 167.29173	-114.10077	99999.00	 99999.00000	 99999.00000	 99999.00000
2014.00	 167.29173	 -62.67219	99999.00	 99999.00000	 99999.00000	 99999.00000
2014.00	 167.29173	 -11.24362	99999.00	 99999.00000	 99999.00000	 99999.00000
2014.00	 180.00000	   0.00000	99999.00	 99999.00000	 99999.00000	 99999.00000
2015.00	   0.00000	   0.00000	 6861.20	-46066.33514	 -1168.30290	 99999.00000
2015.00	  12.70827	  25.71429	 6861.20	-44418.43806	 -5917.83649	  1062.24444
2015.00	  12.70827	  77.14286	 6861.20	-46603.56781	 -3586.87698	  1716.12641
2015.00	  12.70827	 128.57143	 6861.20	-47171.73003	 -3739.20422	  -499.23429
2015.00	  12.70827	 180.00000	 6861.20	-46289.10545	 -4920.89991	   538.61363
2015.00	  12.70827	-128.57143	 6861.20	-46395.47469	 -2689.19361	  1101.21891
2015.00	  12.70827	 -77.14286	 6861.20	-45798.21727	 -2231.96177	 -1829.54873
2015.00	  12.70827	 -25.71429	 6861.20	-44210.35585	 -5288.56660	 -2093.22396
2015.00	  24.74016	   3.95604	 6861.20	-41008.48588	-10480.22883	  -284.46283
2015.00	  24.74016	  31.64835	 6861.20	-42191.18155	-10005.71249	  1772.81674
2015.00	  24.74016	  59.34066	 6861.20	-44702.46830	 -8848.91881	  2584.66467
2015.00	  24.74016	  87.03297	 6861.20	-47159.16298	 -7845.01804	  1296.53848
2015.00	  24.74016	 114.72527	 6861.20	-47364.25246	 -8340.56329	 -1198.94225
2015.00	  24.74016	 142.41758	 6861.20	-45285.73268	-10261.78241	 -1973.62437
2015.00	  24.74016	 170.10989	 6861.20	-43483.52056	-11414.36507	   -99.36261
2015.00	  24.74016	-162.19780	 6861.20	-43607.32363	-10429.14921	  2295.41928
2015.00	  24.74016	-134.50549	 6861.20	-45168.61588	 -7915.50964	  2936.59011
2015.00	  24.74016	-106.81319	 6861.20	-46407.53769	 -5712.03528	  1008.20862
2015.00	  24.74016	 -79.12088	 6861.20	-45812.35599	 -5634.89147	 -2080.37468
2015.00	  24.74016	 -51.42857	 6861.20	-43586.66323	 -7667.43915	 -3655.12032
2015.00	  24.74016	 -23.73626	 6861.20	-41536.44826	 -9747.14013	 -2601.92396
2015.00	  36.47600	  -2.96703	 6861.20	-36740.60387	-14926.26315	  -771.02638
2015.00	  36.47600	  17.03297	 6861.20	-37445.67987	-14760.51212	   865.41021
2015.00	  36.47600	  37.03297	 6861.20	-38986.10954	-14422.85948	  1983.61482
2015.00	  36.47600	  57.03297	 6861.20	-41258.46875	-14129.73077	  2427.35439
2015.00	  36.47600	  77.03297	 6861.20	-43721.70594	-13965.90513	  1821.25150
2015.00	  36.47600	  97.03297	 6861.20	-45109.73481	-14050.62742	    37.16771
2015.00	  36.47600	 117.03297	 6861.20	-44207.22615	-14722.23529	 -2100.68896
2015.00	  36.47600	 137.03297	 6861.20	-41287.52142	-15932.27460	 -2865.39182
2015.00	  36.47600	 157.03297	 6861.20	-38346.61180	-16797.46785	 -1539.12887
2015.00	  36.47600	 177.03297	 6861.20	-37047.99908	-16652.80056	   860.01381
2015.00	  36.47600	-162.96703	 6861.20	-37767.24902	-15573.95411	  3020.83365
2015.00	  36.47600	-142.96703	 6861.20	-39992.52508	-13887.96933	  4094.12366
2015.00	  36.47600	-122.96703	 6861.20	-42657.82680	-11974.03293	  3528.51352
2015.00	  36.47600	-102.96703	 6861.20	-44405.87935	-10476.03211	  1311.27347
2015.00	  36.47600	 -82.96703	 6861.20	-44182.10215	-10208.59443	 -1772.83124
2015.00	  36.47600	 -62.96703	 6861.20	-41913.35630	-11427.94769	 -4009.24750
2015.00	  36.47600	 -42.96703	 6861.20	-39080.56920	-13210.88269	 -4172.76429
2015.00	  36.47600	 -22.96703	 6861.20	-37200.48373	-14497.24524	 -2721.42290
2015.00	  48.17388	  -6.88008	 6861.20	-30169.62179	-19685.30296	 -1055.82635
2015.00	  48.17388	   8.77210	 6861.20	-30877.30208	-19699.30712	   360.39911
2015.00	  48.17388	  24.42427	 6861.20	-32068.52657	-19538.35793	  1287.19700
2015.00	  48.17388	  40.07645	 6861.20	-33586.08159	-19431.06070	  1785.57114
2015.00	  48.17388	  55.72862	 6861.20	-35301.30317	-19638.76329	  1821.88031
2015.00	  48.17388	  71.38079	 6861.20	-37002.83372	-20135.15317	  1465.01731
2015.00	  48.17388	  87.03297	 6861.20	-38352.81365	-20608.90116	   615.60905
2015.00	  48.17388	 102.68514	 6861.20	-38680.59996	-20903.65717	  -808.04215
2015.00	  48.17388	 118.33731	 6861.20	-37286.24074	-21141.06598	 -2342.67493
2015.00	  48.17388	 133.98949	 6861.20	-34369.29534	-21360.93453	 -2902.72925
2015.00	  48.17388	 149.64166	 6861.20	-31327.20104	-21269.04841	 -1948.17066
2015.00	  48.17388	 165.29384	 6861.20	-29459.34921	-20671.09336	   -62.73052
2015.00	  48.17388	-179.05399	 6861.20	-29171.03061	-19737.61985	  1883.67057
2015.00	  48.17388	-163.40182	 6861.20	-30231.21794	-18800.06910	  3384.21672
2015.00	  48.17388	-147.74964	 6861.20	-32296.10110	-17964.53944	  4314.89748
2015.00	  48.17388	-132.09747	 6861.20	-34988.58340	-17089.10203	  4452.72340
2015.00	  48.17388	-116.44529	 6861.20	-37654.61607	-16128.69616	  3534.11632
2015.00	  48.17388	-100.79312	 6861.20	-39480.29816	-15285.37291	  1479.17107
2015.00	  48.17388	 -85.14095	 6861.20	-39576.56342	-14994.30862	 -1363.97188
2015.00	  48.17388	 -69.48877	 6861.20	-37620.15407	-15563.50361	 -3859.76812
2015.00	  48.17388	 -53.83660	 6861.20	-34614.65325	-16794.91660	 -4885.37818
2015.00	  48.17388	 -38.18442	 6861.20	-31961.34144	-18168.00090	 -4339.54784
2015.00	  48.17388	 -22.53225	 6861.20	-30433.61066	-19209.49463	 -2824.87074
2015.00	  60.04178	  -8.90906	 6861.20	-20392.36570	-23849.29246	 -1477.62850
2015.00	  60.04178	   4.42427	 6861.20	-21053.37728	-24240.82315	   -68.13174
2015.00	  60.04178	  17.75760	 6861.20	-22195.90368	-24404.09232	   867.20847
2015.00	  60.04178	  31.09094	 6861.20	-23649.30870	-24410.37398	  1409.93125
2015.00	  60.04178	  44.42427	 6861.20	-25179.83222	-24529.36854	  1370.60533
2015.00	  60.04178	  57.75760	 6861.20	-26353.37679	-25047.14729	   974.68111
2015.00	  60.04178	  71.09094	 6861.20	-27210.03731	-25837.10601	   593.17709
2015.00	  60.04178	  84.42427	 6861.20	-27881.61609	-26577.34619	   180.94554
2015.00	  60.04178	  97.75760	 6861.20	-28179.57757	-26968.58733	  -462.70155
2015.00	  60.04178	 111.09094	 6861.20	-27633.15459	-26887.00711	 -1409.84933
2015.00	  60.04178	 124.42427	 6861.20	-25862.43031	-26456.26185	 -2160.71932
2015.00	  60.04178	 137.75760	 6861.20	-23413.68359	-25711.21350	 -1943.84552
2015.00	  60.04178	 151.09094	 6861.20	-21418.43222	-24630.00032	  -727.50638
2015.00	  60.04178	 164.42427	 6861.20	-20570.11109	-23336.08637	   908.37601
2015.00	  60.04178	 177.75760	 6861.20	-20899.24606	-22069.08862	  2343.46398
2015.00	  60.04178	-168.90906	 6861.20	-21974.93236	-21117.25745	  3287.74582
2015.00	  60.04178	-155.57573	 6861.20	-23432.86258	-20594.50307	  3903.25104
2015.00	  60.04178	-142.24240	 6861.20	-25301.86363	-20326.43600	  4309.34417
2015.00	  60.04178	-128.90906	 6861.20	-27556.55915	-20096.27887	  4281.31932
2015.00	  60.04178	-115.57573	 6861.20	-29871.57171	-19776.55574	  3577.86342
2015.00	  60.04178	-102.24240	 6861.20	-31708.71428	-19346.11500	  2002.36876
2015.00	  60.04178	 -88.90906	 6861.20	-32309.91944	-18965.96197	  -401.70688
2015.00	  60.04178	 -75.57573	 6861.20	-31114.89838	-18916.57393	 -3016.69304
2015.00	  60.04178	 -62.24240	 6861.20	-28410.17891	-19435.35337	 -4890.05578
2015.00	  60.04178	 -48.90906	 6861.20	-25189.30909	-20522.78109	 -5461.31975
2015.00	  60.04178	 -35.57573	 6861.20	-22443.22381	-21878.65723	 -4767.25371
2015.00	  60.04178	 -22.24240	 6861.20	-20772.24195	-23075.25787	 -3242.43818
2015.00	  72.03865	  -9.57573	 6861.20	 -7834.39527	-25660.07319	 -2156.30822
2015.00	  72.03865	   2.42427	 6861.20	 -8099.01815	-26427.37998	  -718.84275
2015.00	  72.03865	  14.42427	 6861.20	 -8933.91091	-26998.15441	   313.76760
2015.00	  72.03865	  26.42427	 6861.20	-10281.07848	-27363.32483	  1032.71788
2015.00	  72.03865	  38.42427	 6861.20	-11961.08162	-27691.70414	  1084.41979
2015.00	  72.03865	  50.42427	 6861.20	-13208.99101	-28255.79136	   495.35060
2015.00	  72.03865	  62.42427	 6861.20	-13751.28842	-29114.87787	  -101.66146
2015.00	  72.03865	  74.42427	 6861.20	-13929.60121	-30082.46973	  -410.22653
2015.00	  72.03865	  86.42427	 6861.20	-13964.56690	-30886.33260	  -490.90296
2015.00	  72.03865	  98.42427	 6861.20	-13982.00548	-31196.51557	  -508.26569
2015.00	  72.03865	 110.42427	 6861.20	-13809.20701	-30877.86562	  -787.07594
2015.00	  72.03865	 122.42427	 6861.20	-12946.95083	-30101.49675	 -1121.41138
2015.00	  72.03865	 134.42427	 6861.20	-11633.23643	-28989.94031	  -812.10490
2015.00	  72.03865	 146.42427	 6861.20	-10716.65962	-27616.21753	   225.86395
2015.00	  72.03865	 158.42427	 6861.20	-10663.32694	-26161.64143	  1569.69488
2015.00	  72.03865	 170.42427	 6861.20	-11515.35775	-24809.90339	  2765.82783
2015.00	  72.03865	-177.57573	 6861.20	-12899.26522	-23733.43316	  3453.77131
2015.00	  72.03865	-165.57573	 6861.20	-14261.45647	-23037.67921	  3702.16168
2015.00	  72.03865	-153.57573	 6861.20	-15480.92617	-22671.70837	  3873.38009
2015.00	  72.03865	-141.57573	 6861.20	-16844.34595	-22509.84467	  4049.02449
2015.00	  72.03865	-129.57573	 6861.20	-18462.26986	-22465.42638	  4010.90871
2015.00	  72.03865	-117.57573	 6861.20	-20203.44043	-22412.07290	  3606.18734
2015.00	  72.03865	-105.57573	 6861.20	-21878.04741	-22177.14394	  2647.25146
2015.00	  72.03865	 -93.57573	 6861.20	-22996.03660	-21714.82341	   900.96984
2015.00	  72.03865	 -81.57573	 6861.20	-22870.86754	-21222.49708	 -1478.23838
2015.00	  72.03865	 -69.57573	 6861.20	-21163.18972	-21004.24754	 -3890.97762
2015.00	  72.03865	 -57.57573	 6861.20	-18100.30839	-21332.45388	 -5627.18173
2015.00	  72.03865	 -45.57573	 6861.20	-14397.85472	-22249.15781	 -6195.91422
2015.00	  72.03865	 -33.57573	 6861.20	-10994.35778	-23490.45866	 -5505.51002
2015.00	  72.03865	 -21.57573	 6861.20	 -8698.54956	-24685.00473	 -3941.68232
2015.00	  84.03646	  -9.76928	 6861.20	  4862.11130	-23525.31256	 -3035.29525
2015.00	  84.03646	   1.84363	 6861.20	  5318.69140	-24446.60064	 -1573.94145
2015.00	  84.03646	  13.45653	 6861.20	  5008.96011	-25267.21817	  -412.86068
2015.00	  84.03646	  25.06943	 6861.20	  3912.86388	-25993.11156	   404.64524
2015.00	  84.03646	  36.68234	 6861.20	  2327.72846	-26820.48343	   423.35713
2015.00	  84.03646	  48.29524	 6861.20	  1214.09589	-27891.87276	  -342.75183
2015.00	  84.03646	  59.90814	 6861.20	  1041.17604	-29185.57779	 -1148.60889
2015.00	  84.03646	  71.52105	 6861.20	  1449.41707	-30533.97048	 -1488.03905
2015.00	  84.03646	  83.13395	 6861.20	  1998.71227	-31662.22580	 -1293.50899
2015.00	  84.03646	  94.74685	 6861.20	  2211.50513	-32259.30123	  -672.79945
2015.00	  84.03646	 106.35976	 6861.20	  1874.46718	-32188.73987	  -184.50977
2015.00	  84.03646	 117.97266	 6861.20	  1652.72572	-31594.52230	  -127.29909
2015.00	  84.03646	 129.58556	 6861.20	  1890.98216	-30668.70700	   173.14614
2015.00	  84.03646	 141.19846	 6861.20	  1897.92146	-29534.59553	  1092.05650
2015.00	  84.03646	 152.81137	 6861.20	  1205.45501	-28339.15300	  2278.53859
2015.00	  84.03646	 164.42427	 6861.20	  -201.17529	-27226.04385	  3368.55278
2015.00	  84.03646	 176.03717	 6861.20	 -2069.45668	-26288.29116	  4016.99147
2015.00	  84.03646	-172.34992	 6861.20	 -3848.96174	-25543.67886	  4136.15964
2015.00	  84.03646	-160.73702	 6861.20	 -5219.24873	-24947.33031	  4063.96873
2015.00	  84.03646	-149.12412	 6861.20	 -6402.03866	-24468.30264	  4066.00358
2015.00	  84.03646	-137.51121	 6861.20	 -7652.31936	-24121.93590	  4040.08116
2015.00	  84.03646	-125.89831	 6861.20	 -8968.83273	-23890.83850	  3849.64846
2015.00	  84.03646	-114.28541	 6861.20	-10366.69952	-23671.46148	  3475.71210
2015.00	  84.03646	-102.67250	 6861.20	-11904.39859	-23290.48694	  2677.69907
2015.00	  84.03646	 -91.05960	 6861.20	-13133.53424	-22668.49808	  1066.45634
2015.00	  84.03646	 -79.44670	 6861.20	-13230.61449	-21948.47777	 -1305.01541
2015.00	  84.03646	 -67.83379	 6861.20	-11647.71196	-21408.35182	 -3886.72010
2015.00	  84.03646	 -56.22089	 6861.20	 -8386.19870	-21239.69350	 -5919.10070
2015.00	  84.03646	 -44.60799	 6861.20	 -4075.78337	-21461.09050	 -6770.25508
2015.00	  84.03646	 -32.99508	 6861.20	   152.30442	-21966.41814	 -6226.45150
2015.00	  84.03646	 -21.38218	 6861.20	  3235.72081	-22663.65818	 -4744.31606
2015.00	  95.96354	  -3.96283	 6861.20	 14647.64397	-18463.94935	 -3112.50224
2015.00	  95.96354	   7.65008	 6861.20	 15401.20268	-19165.38891	 -1814.50028
2015.00	  95.96354	  19.26298	 6861.20	 15156.13814	-20018.53400	  -827.85551
2015.00	  95.96354	  30.87588	 6861.20	 14189.14031	-21206.02329	  -618.19604
2015.00	  95.96354	  42.48879	 6861.20	 13469.03562	-22793.72488	 -1367.42446
2015.00	  95.96354	  54.10169	 6861.20	 13824.31532	-24628.69688	 -2445.84256
2015.00	  95.96354	  65.71459	 6861.20	 15115.65242	-26483.31063	 -3026.84302
2015.00	  95.96354	  77.32750	 6861.20	 16666.80427	-28122.78089	 -2806.50188
2015.00	  95.96354	  88.94040	 6861.20	 17753.61242	-29336.63151	 -1799.46482
2015.00	  95.96354	 100.55330	 6861.20	 17720.93268	-30013.69635	  -504.19822
2015.00	  95.96354	 112.16621	 6861.20	 16915.41148	-30159.72590	   270.14465
2015.00	  95.96354	 123.77911	 6861.20	 16304.80712	-29852.50933	   702.09389
2015.00	  95.96354	 135.39201	 6861.20	 15790.95041	-29267.06645	  1510.99234
2015.00	  95.96354	 147.00492	 6861.20	 14760.35708	-28594.68718	  2656.25799
2015.00	  95.96354	 158.61782	 6861.20	 13087.70896	-27931.85769	  3767.39397
2015.00	  95.96354	 170.23072	 6861.20	 10935.78472	-27323.30230	  4548.87312
2015.00	  95.96354	-178.15637	 6861.20	  8698.89164	-26743.15539	  4822.28689
2015.00	  95.96354	-166.54347	 6861.20	  6773.85371	-26112.63261	  4760.76878
2015.00	  95.96354	-154.93057	 6861.20	  5144.83214	-25432.54897	  4674.26252
2015.00	  95.96354	-143.31766	 6861.20	  3581.57939	-24770.98104	  4587.16069
2015.00	  95.96354	-131.70476	 6861.20	  2057.48368	-24191.30180	  4371.66313
2015.00	  95.96354	-120.09186	 6861.20	   615.65730	-23690.60248	  4048.88642
2015.00	  95.96354	-108.47895	 6861.20	  -924.00056	-23215.39746	  3610.13376
2015.00	  95.96354	 -96.86605	 6861.20	 -2633.61589	-22634.38206	  2666.89034
2015.00	  95.96354	 -85.25315	 6861.20	 -3907.90376	-21839.11126	   796.61407
2015.00	  95.96354	 -73.64024	 6861.20	 -3777.60262	-20905.54140	 -1844.27615
2015.00	  95.96354	 -62.02734	 6861.20	 -1701.33548	-19982.70877	 -4470.72902
2015.00	  95.96354	 -50.41444	 6861.20	  1983.67302	-19112.07971	 -6202.91626
2015.00	  95.96354	 -38.80154	 6861.20	  6292.22144	-18360.61465	 -6589.87231
2015.00	  95.96354	 -27.18863	 6861.20	 10109.48263	-17921.50130	 -5824.29870
2015.00	  95.96354	 -15.57573	 6861.20	 12903.72573	-17976.86361	 -4524.74833
2015.00	 107.96135	  -3.38218	 6861.20	 18736.36800	-12559.93930	 -3511.23641
2015.00	 107.96135	   8.61782	 6861.20	 19678.93946	-12763.95338	 -2473.43590
2015.00	 107.96135	  20.61782	 6861.20	 19768.18324	-13585.22486	 -1991.13878
2015.00	 107.96135	  32.61782	 6861.20	 19762.08151	-15096.25447	 -2497.46308
2015.00	 107.96135	  44.61782	 6861.20	 20708.01063	-17064.23080	 -3768.59174
2015.00	 107.96135	  56.61782	 6861.20	 23026.10396	-19125.12873	 -4900.91587
2015.00	 107.96135	  68.61782	 6861.20	 26069.90114	-21024.50612	 -5107.82017
2015.00	 107.96135	  80.61782	 6861.20	 28882.61497	-22655.68054	 -4247.38051
2015.00	 107.96135	  92.61782	 6861.20	 30593.58116	-24030.94232	 -2544.53038
2015.00	 107.96135	 104.61782	 6861.20	 30767.60942	-25154.39293	  -790.34009
2015.00	 107.96135	 116.61782	 6861.20	 30128.78340	-25851.40592	   368.06014
2015.00	 107.96135	 128.61782	 6861.20	 29417.60555	-26033.46415	  1340.71282
2015.00	 107.96135	 140.61782	 6861.20	 28401.89110	-25918.27462	  2551.00154
2015.00	 107.96135	 152.61782	 6861.20	 26776.69139	-25723.29808	  3822.79980
2015.00	 107.96135	 164.61782	 6861.20	 24558.67791	-25508.56253	  4868.02372
2015.00	 107.96135	 176.61782	 6861.20	 22009.58081	-25250.48939	  5457.54400
2015.00	 107.96135	-171.38218	 6861.20	 19510.47817	-24874.98839	  5627.54630
2015.00	 107.96135	-159.38218	 6861.20	 17191.57993	-24356.21233	  5624.20466
2015.00	 107.96135	-147.38218	 6861.20	 14951.40389	-23764.67973	  5545.57793
2015.00	 107.96135	-135.38218	 6861.20	 12792.00439	-23168.02250	  5314.55504
2015.00	 107.96135	-123.38218	 6861.20	 10814.76308	-22556.56012	  4947.13666
2015.00	 107.96135	-111.38218	 6861.20	  8914.67261	-21927.51563	  4521.91662
2015.00	 107.96135	 -99.38218	 6861.20	  6854.60188	-21253.70000	  3801.64900
2015.00	 107.96135	 -87.38218	 6861.20	  4887.85337	-20424.37702	  2245.30913
2015.00	 107.96135	 -75.38218	 6861.20	  4000.13702	-19323.95639	  -300.06712
2015.00	 107.96135	 -63.38218	 6861.20	  5038.25827	-17949.97787	 -3081.13254
2015.00	 107.96135	 -51.38218	 6861.20	  7760.56895	-16402.96740	 -5048.51390
2015.00	 107.96135	 -39.38218	 6861.20	 11142.45691	-14876.04146	 -5737.10682
2015.00	 107.96135	 -27.38218	 6861.20	 14278.15600	-13628.31063	 -5418.98128
2015.00	 107.96135	 -15.38218	 6861.20	 16856.22555	-12847.94972	 -4592.89830
2015.00	 119.95822	  -1.38218	 6861.20	 19194.27236	 -9123.02428	 -3416.10285
2015.00	 119.95822	  11.95115	 6861.20	 19807.58053	 -9196.79102	 -3135.84934
2015.00	 119.95822	  25.28449	 6861.20	 20514.22780	-10163.36467	 -3842.21260
2015.00	 119.95822	  38.61782	 6861.20	 22437.84873	-11677.11528	 -5441.39137
2015.00	 119.95822	  51.95115	 6861.20	 26132.86333	-13232.02241	 -7012.89304
2015.00	 119.95822	  65.28449	 6861.20	 30928.57615	-14606.36948	 -7465.95656
2015.00	 119.95822	  78.61782	 6861.20	 35510.44087	-15890.27949	 -6504.10504
2015.00	 119.95822	  91.95115	 6861.20	 38838.17730	-17246.93115	 -4446.09005
2015.00	 119.95822	 105.28449	 6861.20	 40383.14778	-18686.72359	 -2086.68512
2015.00	 119.95822	 118.61782	 6861.20	 40580.79075	-19835.60504	  -111.39576
2015.00	 119.95822	 131.95115	 6861.20	 39994.07059	-20466.89765	  1631.70730
2015.00	 119.95822	 145.28449	 6861.20	 38640.22678	-20786.13109	  3332.47858
2015.00	 119.95822	 158.61782	 6861.20	 36492.97707	-21011.05835	  4834.59313
2015.00	 119.95822	 171.95115	 6861.20	 33723.04435	-21197.60125	  5890.17349
2015.00	 119.95822	-174.71551	 6861.20	 30715.24828	-21274.41732	  6408.72123
2015.00	 119.95822	-161.38218	 6861.20	 27736.40030	-21199.26052	  6591.19059
2015.00	 119.95822	-148.04885	 6861.20	 24812.57471	-21023.82825	  6573.60282
2015.00	 119.95822	-134.71551	 6861.20	 21983.06250	-20741.45137	  6370.69490
2015.00	 119.95822	-121.38218	 6861.20	 19270.58467	-20278.75127	  6037.95814
2015.00	 119.95822	-108.04885	 6861.20	 16497.78479	-19643.85409	  5567.80332
2015.00	 119.95822	 -94.71551	 6861.20	 13540.59571	-18905.05096	  4549.55281
2015.00	 119.95822	 -81.38218	 6861.20	 11028.04589	-17976.06815	  2413.56144
2015.00	 119.95822	 -68.04885	 6861.20	 10171.20343	-16615.92780	  -554.76194
2015.00	 119.95822	 -54.71551	 6861.20	 11372.56844	-14818.03882	 -3133.21285
2015.00	 119.95822	 -41.38218	 6861.20	 13722.28379	-12899.17630	 -4415.11932
2015.00	 119.95822	 -28.04885	 6861.20	 16068.20557	-11190.26119	 -4536.12175
2015.00	 119.95822	 -14.71551	 6861.20	 17945.28938	 -9872.18906	 -4072.70344
2015.00	 131.82612	   1.22652	 6861.20	 19076.75251	 -8777.65479	 -3613.20968
2015.00	 131.82612	  16.87869	 6861.20	 19962.16715	 -9003.89566	 -4633.00411
2015.00	 131.82612	  32.53086	 6861.20	 22352.27242	 -9671.84281	 -6688.29616
2015.00	 131.82612	  48.18304	 6861.20	 26967.23853	-10148.69404	 -8788.73347
2015.00	 131.82612	  63.83521	 6861.20	 33159.72604	-10299.61446	 -9572.46106
2015.00	 131.82612	  79.48738	 6861.20	 39360.92235	-10548.06657	 -8490.00926
2015.00	 131.82612	  95.13956	 6861.20	 44205.69484	-11258.25029	 -5933.30398
2015.00	 131.82612	 110.79173	 6861.20	 46941.91372	-12372.34717	 -2791.87765
2015.00	 131.82612	 126.44391	 6861.20	 47654.56444	-13457.77117	   192.29751
2015.00	 131.82612	 142.09608	 6861.20	 46750.29443	-14337.07278	  2829.90480
2015.00	 131.82612	 157.74825	 6861.20	 44555.02763	-15138.73753	  4992.04286
2015.00	 131.82612	 173.40043	 6861.20	 41474.36623	-15932.73264	  6477.00516
2015.00	 131.82612	-170.94740	 6861.20	 38005.04806	-16628.90745	  7259.89423
2015.00	 131.82612	-155.29522	 6861.20	 34490.99489	-17157.02722	  7561.94438
2015.00	 131.82612	-139.64305	 6861.20	 31012.03568	-17480.34603	  7601.25264
2015.00	 131.82612	-123.99088	 6861.20	 27427.83220	-17540.33819	  7485.01503
2015.00	 131.82612	-108.33870	 6861.20	 23487.54513	-17373.95138	  7073.52107
2015.00	 131.82612	 -92.68653	 6861.20	 19321.71784	-17072.17525	  5746.93566
2015.00	 131.82612	 -77.03435	 6861.20	 16050.78678	-16404.03522	  3032.24983
2015.00	 131.82612	 -61.38218	 6861.20	 14942.22452	-14971.28851	  -252.40996
2015.00	 131.82612	 -45.73001	 6861.20	 15837.21181	-12928.46273	 -2572.17750
2015.00	 131.82612	 -30.07783	 6861.20	 17319.97792	-10925.04741	 -3414.17634
2015.00	 131.82612	 -14.42566	 6861.20	 18417.99258	 -9443.34668	 -3477.90218
2015.00	 143.52400	   6.00912	 6861.20	 21025.65240	-10390.66628	 -4729.96157
2015.00	 143.52400	  26.00912	 6861.20	 23440.03913	-10096.27782	 -7407.80757
2015.00	 143.52400	  46.00912	 6861.20	 28650.88367	 -9131.45039	-10202.96198
2015.00	 143.52400	  66.00912	 6861.20	 36011.74861	 -7457.75399	-11177.87298
2015.00	 143.52400	  86.00912	 6861.20	 43479.77985	 -6024.67699	 -9433.84712
2015.00	 143.52400	 106.00912	 6861.20	 48995.54502	 -5625.90277	 -5576.83965
2015.00	 143.52400	 126.00912	 6861.20	 51409.51145	 -6283.03050	 -1036.15307
2015.00	 143.52400	 146.00912	 6861.20	 50895.73327	 -7595.89620	  3010.60318
2015.00	 143.52400	 166.00912	 6861.20	 48311.85010	 -9270.79667	  5976.08170
2015.00	 143.52400	-173.99088	 6861.20	 44633.38826	-11020.06154	  7729.26582
2015.00	 143.52400	-153.99088	 6861.20	 40544.18185	-12548.68938	  8571.75224
2015.00	 143.52400	-133.99088	 6861.20	 36162.65948	-13762.01844	  8929.76113
2015.00	 143.52400	-113.99088	 6861.20	 31168.14767	-14800.53642	  8787.20382
2015.00	 143.52400	 -93.99088	 6861.20	 25758.44937	-15712.50272	  7326.07284
2015.00	 143.52400	 -73.99088	 6861.20	 21486.34177	-15854.27073	  4038.42299
2015.00	 143.52400	 -53.99088	 6861.20	 19760.50709	-14562.61355	   348.41564
2015.00	 143.52400	 -33.99088	 6861.20	 19843.40049	-12527.36411	 -1952.79547
2015.00	 143.52400	 -13.99088	 6861.20	 20265.48192	-10997.17632	 -3169.14792
2015.00	 155.25984	  14.47066	 6861.20	 26562.25423	-11750.98680	 -7054.57811
2015.00	 155.25984	  42.16297	 6861.20	 31436.64499	 -8911.96949	-10972.13792
2015.00	 155.25984	  69.85528	 6861.20	 39220.37959	 -4450.45054	-12130.06905
2015.00	 155.25984	  97.54759	 6861.20	 46953.85501	  -543.44772	 -8828.04968
2015.00	 155.25984	 125.23989	 6861.20	 51416.12804	   720.66462	 -2629.75623
2015.00	 155.25984	 152.93220	 6861.20	 51612.81599	  -765.25891	  3434.35788
2015.00	 155.25984	-179.37549	 6861.20	 48767.18668	 -3755.16910	  7554.11640
2015.00	 155.25984	-151.68318	 6861.20	 44335.11849	 -7075.22240	  9695.29273
2015.00	 155.25984	-123.99088	 6861.20	 38841.18522	-10357.18291	 10326.68665
2015.00	 155.25984	 -96.29857	 6861.20	 32695.03187	-13511.45423	  8829.49926
2015.00	 155.25984	 -68.60626	 6861.20	 27734.23837	-15203.49140	  4751.54478
2015.00	 155.25984	 -40.91395	 6861.20	 25396.22488	-14566.82739	   278.18128
2015.00	 155.25984	 -13.22165	 6861.20	 24987.98808	-13184.94526	 -3234.72466
2015.00	 167.29173	  40.18495	 6861.20	 36429.21686	 -7597.65600	-11511.07516
2015.00	 167.29173	  91.61352	 6861.20	 44230.69845	  2868.32661	-10416.02504
2015.00	 167.29173	 143.04209	 6861.20	 48715.11040	  6964.75166	   114.15215
2015.00	 167.29173	-165.52934	 6861.20	 46620.57844	  1799.44415	  9195.85516
2015.00	 167.29173	-114.10077	 6861.20	 40589.97355	 -7055.80259	 11184.14559
2015.00	 167.29173	 -62.67219	 6861.20	 34609.93451	-13716.98902	  5291.43777
2015.00	 167.29173	 -11.24362	 6861.20	 32682.13267	-13867.54337	 -3845.26891
2015.00	 180.00000	   0.00000	 6861.20	 41675.67844	-10279.83100	     4.82255
2016.00	   0.00000	   0.00000	 6861.20	-46072.76896	 -1168.46534	 99999.00000
2016.00	  12.70827	  25.71429	 6861.20	-44446.68477	 -5901.14466	  1098.22455
2016.00	  12.70827	  77.14286	 6861.20	-46633.12097	 -3561.10697	  1714.09674
2016.00	  12.70827	 128.57143	 6861.20	-47193.39778	 -3715.81180	  -513.53779
2016.00	  12.70827	 180.00000	 6861.20	-46302.60203	 -4917.23935	   488.87040
2016.00	  12.70827	-128.57143	 6861.20	-46374.31796	 -2736.87095	  1065.92649
2016.00	  12.70827	 -77.14286	 6861.20	-45782.45399	 -2285.49731	 -1805.46488
2016.00	  12.70827	 -25.71429	 6861.20	-44221.20814	 -5312.49437	 -2040.07556
2016.00	  24.74016	   3.95604	 6861.20	-41029.99120	-10482.40669	  -244.86748
2016.00	  24.74016	  31.64835	 6861.20	-42224.34709	 -9991.66161	  1801.74980
2016.00	  24.74016	  59.34066	 6861.20	-44740.50651	 -8822.72954	  2596.60421
2016.00	  24.74016	  87.03297	 6861.20	-47185.85984	 -7815.39227	  1289.28192
2016.00	  24.74016	 114.72527	 6861.20	-47379.74339	 -8319.37309	 -1208.23276
2016.00	  24.74016	 142.41758	 6861.20	-45314.29845	-10240.95984	 -1985.54675
2016.00	  24.74016	 170.10989	 6861.20	-43513.00764	-11398.95186	  -139.69133
2016.00	  24.74016	-162.19780	 6861.20	-43599.26823	-10435.54097	  2232.62373
2016.00	  24.74016	-134.50549	 6861.20	-45118.57329	 -7950.19743	  2886.33200
2016.00	  24.74016	-106.81319	 6861.20	-46344.58886	 -5761.44129	  1001.17331
2016.00	  24.74016	 -79.12088	 6861.20	-45766.87072	 -5688.36938	 -2060.74772
2016.00	  24.74016	 -51.42857	 6861.20	-43567.48002	 -7709.15030	 -3612.88420
2016.00	  24.74016	 -23.73626	 6861.20	-41540.41344	 -9771.02348	 -2556.35398
2016.00	  36.47600	  -2.96703	 6861.20	-36754.67063	-14940.70620	  -726.59309
2016.00	  36.47600	  17.03297	 6861.20	-37474.42576	-14759.82740	   904.96960
2016.00	  36.47600	  37.03297	 6861.20	-39026.79864	-14412.10872	  2012.79433
2016.00	  36.47600	  57.03297	 6861.20	-41307.34338	-14109.25756	  2445.23260
2016.00	  36.47600	  77.03297	 6861.20	-43770.94426	-13934.04320	  1824.49992
2016.00	  36.47600	  97.03297	 6861.20	-45147.61031	-14015.39665	    24.72998
2016.00	  36.47600	 117.03297	 6861.20	-44233.12875	-14694.12501	 -2114.87201
2016.00	  36.47600	 137.03297	 6861.20	-41318.70564	-15915.34003	 -2876.26301
2016.00	  36.47600	 157.03297	 6861.20	-38387.85754	-16789.06978	 -1559.66927
2016.00	  36.47600	 177.03297	 6861.20	-37076.28689	-16649.02130	   816.66575
2016.00	  36.47600	-162.96703	 6861.20	-37757.36620	-15574.32539	  2964.04482
2016.00	  36.47600	-142.96703	 6861.20	-39942.05878	-13894.50781	  4041.76067
2016.00	  36.47600	-122.96703	 6861.20	-42579.21134	-11989.30400	  3494.03364
2016.00	  36.47600	-102.96703	 6861.20	-44321.20243	-10504.50533	  1294.70526
2016.00	  36.47600	 -82.96703	 6861.20	-44104.39475	-10251.94036	 -1767.46235
2016.00	  36.47600	 -62.96703	 6861.20	-41854.91652	-11477.63331	 -3981.22547
2016.00	  36.47600	 -42.96703	 6861.20	-39046.59396	-13252.99183	 -4129.73659
2016.00	  36.47600	 -22.96703	 6861.20	-37192.94311	-14526.58651	 -2673.13399
2016.00	  48.17388	  -6.88008	 6861.20	-30169.94132	-19708.58641	 -1008.08512
2016.00	  48.17388	   8.77210	 6861.20	-30896.90474	-19710.70808	   403.71800
2016.00	  48.17388	  24.42427	 6861.20	-32102.77344	-19541.12011	  1326.33502
2016.00	  48.17388	  40.07645	 6861.20	-33632.27633	-19425.80372	  1814.71663
2016.00	  48.17388	  55.72862	 6861.20	-35355.41748	-19627.80439	  1844.61445
2016.00	  48.17388	  71.38079	 6861.20	-37065.66031	-20114.85962	  1481.36392
2016.00	  48.17388	  87.03297	 6861.20	-38420.32788	-20578.74991	   618.85175
2016.00	  48.17388	 102.68514	 6861.20	-38742.25833	-20870.36674	  -821.15298
2016.00	  48.17388	 118.33731	 6861.20	-37335.25444	-21115.24301	 -2364.50114
2016.00	  48.17388	 133.98949	 6861.20	-34407.50556	-21350.44310	 -2924.46766
2016.00	  48.17388	 149.64166	 6861.20	-31363.17109	-21272.23909	 -1968.71937
2016.00	  48.17388	 165.29384	 6861.20	-29490.71662	-20678.49246	   -88.14095
2016.00	  48.17388	-179.05399	 6861.20	-29186.05667	-19740.18121	  1846.98832
2016.00	  48.17388	-163.40182	 6861.20	-30220.60915	-18795.73788	  3341.73108
2016.00	  48.17388	-147.74964	 6861.20	-32257.98226	-17953.29765	  4272.14508
2016.00	  48.17388	-132.09747	 6861.20	-34927.14930	-17075.98346	  4414.45645
2016.00	  48.17388	-116.44529	 6861.20	-37576.33935	-16119.01107	  3500.78172
2016.00	  48.17388	-100.79312	 6861.20	-39389.28995	-15287.93717	  1452.88006
2016.00	  48.17388	 -85.14095	 6861.20	-39477.72902	-15015.75825	 -1377.26264
2016.00	  48.17388	 -69.48877	 6861.20	-37525.24694	-15602.05771	 -3850.71480
2016.00	  48.17388	 -53.83660	 6861.20	-34539.73488	-16838.68273	 -4853.83572
2016.00	  48.17388	 -38.18442	 6861.20	-31912.67437	-18208.42648	 -4295.69299
2016.00	  48.17388	 -22.53225	 6861.20	-30410.35383	-19243.67738	 -2774.29447
2016.00	  60.04178	  -8.90906	 6861.20	-20372.62928	-23876.80642	 -1427.40815
2016.00	  60.04178	   4.42427	 6861.20	-21055.55613	-24261.22319	   -21.04116
2016.00	  60.04178	  17.75760	 6861.20	-22214.82877	-24415.00156	   912.38530
2016.00	  60.04178	  31.09094	 6861.20	-23686.75154	-24415.04148	  1447.13067
2016.00	  60.04178	  44.42427	 6861.20	-25228.25067	-24529.62978	  1397.78022
2016.00	  60.04178	  57.75760	 6861.20	-26409.03000	-25045.22903	   998.85528
2016.00	  60.04178	  71.09094	 6861.20	-27280.47150	-25828.95672	   616.26000
2016.00	  60.04178	  84.42427	 6861.20	-27965.62275	-26561.53013	   193.78510
2016.00	  60.04178	  97.75760	 6861.20	-28266.95004	-26947.32461	  -467.71865
2016.00	  60.04178	 111.09094	 6861.20	-27709.60121	-26868.59439	 -1432.03130
2016.00	  60.04178	 124.42427	 6861.20	-25917.98269	-26447.75157	 -2195.02566
2016.00	  60.04178	 137.75760	 6861.20	-23446.41434	-25718.29484	 -1975.54847
2016.00	  60.04178	 151.09094	 6861.20	-21438.97272	-24644.51589	  -751.11903
2016.00	  60.04178	 164.42427	 6861.20	-20584.90142	-23349.94468	   889.31494
2016.00	  60.04178	 177.75760	 6861.20	-20906.93204	-22074.40949	  2321.43703
2016.00	  60.04178	-168.90906	 6861.20	-21971.67561	-21110.99334	  3261.90037
2016.00	  60.04178	-155.57573	 6861.20	-23416.32709	-20576.35795	  3875.20006
2016.00	  60.04178	-142.24240	 6861.20	-25272.10181	-20299.73480	  4279.44645
2016.00	  60.04178	-128.90906	 6861.20	-27514.09717	-20063.90303	  4251.37196
2016.00	  60.04178	-115.57573	 6861.20	-29815.79744	-19745.55238	  3544.06743
2016.00	  60.04178	-102.24240	 6861.20	-31635.73389	-19321.78754	  1966.06475
2016.00	  60.04178	 -88.90906	 6861.20	-32214.79508	-18956.66892	  -435.49731
2016.00	  60.04178	 -75.57573	 6861.20	-31003.01735	-18928.91837	 -3034.83104
2016.00	  60.04178	 -62.24240	 6861.20	-28297.23845	-19464.37422	 -4882.08357
2016.00	  60.04178	 -48.90906	 6861.20	-25094.26214	-20561.87054	 -5430.27803
2016.00	  60.04178	 -35.57573	 6861.20	-22372.23616	-21917.32893	 -4723.49666
2016.00	  60.04178	 -22.24240	 6861.20	-20727.33420	-23111.10170	 -3190.89170
2016.00	  72.03865	  -9.57573	 6861.20	 -7792.23234	-25685.85726	 -2104.46487
2016.00	  72.03865	   2.42427	 6861.20	 -8079.39724	-26448.00742	  -669.19555
2016.00	  72.03865	  14.42427	 6861.20	 -8933.52298	-27010.70995	   362.46961
2016.00	  72.03865	  26.42427	 6861.20	-10307.83657	-27369.84358	  1077.08127
2016.00	  72.03865	  38.42427	 6861.20	-12005.00734	-27697.22084	  1112.13612
2016.00	  72.03865	  50.42427	 6861.20	-13258.25243	-28264.68191	   516.10406
2016.00	  72.03865	  62.42427	 6861.20	-13809.30380	-29125.13820	   -76.83713
2016.00	  72.03865	  74.42427	 6861.20	-14005.65529	-30092.35505	  -385.71164
2016.00	  72.03865	  86.42427	 6861.20	-14054.38661	-30890.90698	  -474.72634
2016.00	  72.03865	  98.42427	 6861.20	-14078.31744	-31194.46097	  -509.58472
2016.00	  72.03865	 110.42427	 6861.20	-13897.12339	-30875.89611	  -811.31580
2016.00	  72.03865	 122.42427	 6861.20	-13006.45398	-30105.01417	 -1163.84939
2016.00	  72.03865	 134.42427	 6861.20	-11658.72532	-29002.92355	  -853.08933
2016.00	  72.03865	 146.42427	 6861.20	-10720.25813	-27633.46756	   198.01043
2016.00	  72.03865	 158.42427	 6861.20	-10660.94567	-26176.48330	  1555.51981
2016.00	  72.03865	 170.42427	 6861.20	-11512.84066	-24817.86777	  2756.71167
2016.00	  72.03865	-177.57573	 6861.20	-12898.09116	-23730.23222	  3444.45769
2016.00	  72.03865	-165.57573	 6861.20	-14260.27385	-23023.87198	  3690.07430
2016.00	  72.03865	-153.57573	 6861.20	-15476.73788	-22645.13734	  3857.80223
2016.00	  72.03865	-141.57573	 6861.20	-16835.05197	-22477.50242	  4029.03658
2016.00	  72.03865	-129.57573	 6861.20	-18446.91383	-22427.48817	  3987.29582
2016.00	  72.03865	-117.57573	 6861.20	-20179.19617	-22373.59855	  3575.67695
2016.00	  72.03865	-105.57573	 6861.20	-21838.76441	-22137.95191	  2608.19932
2016.00	  72.03865	 -93.57573	 6861.20	-22930.46721	-21683.31209	   853.34889
2016.00	  72.03865	 -81.57573	 6861.20	-22771.62597	-21206.76047	 -1522.20915
2016.00	  72.03865	 -69.57573	 6861.20	-21038.06375	-21006.63807	 -3913.66036
2016.00	  72.03865	 -57.57573	 6861.20	-17969.14452	-21350.41484	 -5625.22426
2016.00	  72.03865	 -45.57573	 6861.20	-14278.93818	-22278.00832	 -6168.59963
2016.00	  72.03865	 -33.57573	 6861.20	-10896.49926	-23521.96624	 -5462.90499
2016.00	  72.03865	 -21.57573	 6861.20	 -8629.77043	-24714.57988	 -3889.67768
2016.00	  84.03646	  -9.76928	 6861.20	  4925.56232	-23538.40073	 -2983.28434
2016.00	  84.03646	   1.84363	 6861.20	  5357.71303	-24455.03940	 -1521.39104
2016.00	  84.03646	  13.45653	 6861.20	  5019.99992	-25269.57470	  -360.13599
2016.00	  84.03646	  25.06943	 6861.20	  3888.95268	-25995.11367	   448.92804
2016.00	  84.03646	  36.68234	 6861.20	  2284.18964	-26831.63765	   445.63880
2016.00	  84.03646	  48.29524	 6861.20	  1171.51733	-27912.32032	  -330.07442
2016.00	  84.03646	  59.90814	 6861.20	   999.01507	-29214.53476	 -1130.15008
2016.00	  84.03646	  71.52105	 6861.20	  1393.70650	-30566.66854	 -1462.54923
2016.00	  84.03646	  83.13395	 6861.20	  1925.22580	-31690.58420	 -1269.40944
2016.00	  84.03646	  94.74685	 6861.20	  2121.31463	-32278.26741	  -660.68352
2016.00	  84.03646	 106.35976	 6861.20	  1781.42641	-32202.04510	  -198.46187
2016.00	  84.03646	 117.97266	 6861.20	  1583.44024	-31605.58915	  -166.93681
2016.00	  84.03646	 129.58556	 6861.20	  1864.43223	-30679.18819	   125.73010
2016.00	  84.03646	 141.19846	 6861.20	  1903.87381	-29545.75876	  1057.87622
2016.00	  84.03646	 152.81137	 6861.20	  1221.63847	-28346.80009	  2262.81415
2016.00	  84.03646	 164.42427	 6861.20	  -187.38086	-27228.09250	  3365.06848
2016.00	  84.03646	 176.03717	 6861.20	 -2064.28383	-26284.49130	  4017.83490
2016.00	  84.03646	-172.34992	 6861.20	 -3852.48746	-25531.86931	  4137.05561
2016.00	  84.03646	-160.73702	 6861.20	 -5229.02391	-24928.48812	  4060.54340
2016.00	  84.03646	-149.12412	 6861.20	 -6413.85778	-24441.66273	  4056.17645
2016.00	  84.03646	-137.51121	 6861.20	 -7663.01818	-24090.22899	  4024.60056
2016.00	  84.03646	-125.89831	 6861.20	 -8975.42881	-23856.11549	  3828.88837
2016.00	  84.03646	-114.28541	 6861.20	-10366.52515	-23633.70562	  3444.95073
2016.00	  84.03646	-102.67250	 6861.20	-11887.64811	-23250.93298	  2635.11998
2016.00	  84.03646	 -91.05960	 6861.20	-13083.07158	-22628.07215	  1010.68795
2016.00	  84.03646	 -79.44670	 6861.20	-13137.19158	-21915.80838	 -1359.04737
2016.00	  84.03646	 -67.83379	 6861.20	-11518.64306	-21387.15970	 -3919.49615
2016.00	  84.03646	 -56.22089	 6861.20	 -8241.01325	-21232.24304	 -5926.47941
2016.00	  84.03646	 -44.60799	 6861.20	 -3934.83396	-21463.47441	 -6748.51797
2016.00	  84.03646	 -32.99508	 6861.20	   272.39718	-21973.76719	 -6186.99057
2016.00	  84.03646	 -21.38218	 6861.20	  3327.42881	-22675.57480	 -4694.37358
2016.00	  95.96354	  -3.96283	 6861.20	 14705.33285	-18450.43195	 -3058.25989
2016.00	  95.96354	   7.65008	 6861.20	 15424.06386	-19150.95009	 -1757.99088
2016.00	  95.96354	  19.26298	 6861.20	 15139.95253	-20012.54660	  -783.71930
2016.00	  95.96354	  30.87588	 6861.20	 14152.71594	-21219.78249	  -598.90956
2016.00	  95.96354	  42.48879	 6861.20	 13439.43529	-22823.76758	 -1367.41718
2016.00	  95.96354	  54.10169	 6861.20	 13811.27971	-24671.94179	 -2443.47711
2016.00	  95.96354	  65.71459	 6861.20	 15103.22693	-26534.56337	 -3008.28039
2016.00	  95.96354	  77.32750	 6861.20	 16636.62321	-28173.23929	 -2775.39153
2016.00	  95.96354	  88.94040	 6861.20	 17695.45887	-29379.09292	 -1770.03504
2016.00	  95.96354	 100.55330	 6861.20	 17640.88436	-30048.18682	  -495.96144
2016.00	  95.96354	 112.16621	 6861.20	 16841.19677	-30186.85738	   248.32685
2016.00	  95.96354	 123.77911	 6861.20	 16263.20770	-29868.60185	   661.09313
2016.00	  95.96354	 135.39201	 6861.20	 15785.01596	-29272.61047	  1475.18547
2016.00	  95.96354	 147.00492	 6861.20	 14773.35957	-28591.57884	  2636.74326
2016.00	  95.96354	 158.61782	 6861.20	 13101.92842	-27924.29760	  3762.68148
2016.00	  95.96354	 170.23072	 6861.20	 10942.73126	-27313.68842	  4552.26899
2016.00	  95.96354	-178.15637	 6861.20	  8696.21609	-26730.27300	  4828.65083
2016.00	  95.96354	-166.54347	 6861.20	  6760.23837	-26097.81052	  4766.15633
2016.00	  95.96354	-154.93057	 6861.20	  5124.17814	-25411.93008	  4673.35487
2016.00	  95.96354	-143.31766	 6861.20	  3559.12382	-24747.29358	  4579.11488
2016.00	  95.96354	-131.70476	 6861.20	  2036.53719	-24164.14846	  4356.71984
2016.00	  95.96354	-120.09186	 6861.20	   599.82465	-23661.92012	  4027.71916
2016.00	  95.96354	-108.47895	 6861.20	  -932.88602	-23179.71134	  3579.10534
2016.00	  95.96354	 -96.86605	 6861.20	 -2623.63988	-22592.35193	  2621.34138
2016.00	  95.96354	 -85.25315	 6861.20	 -3863.73360	-21786.81921	   739.45827
2016.00	  95.96354	 -73.64024	 6861.20	 -3689.83622	-20852.89260	 -1896.69977
2016.00	  95.96354	 -62.02734	 6861.20	 -1578.15319	-19933.59013	 -4500.37776
2016.00	  95.96354	 -50.41444	 6861.20	  2122.41778	-19072.93813	 -6205.82192
2016.00	  95.96354	 -38.80154	 6861.20	  6422.58578	-18326.34196	 -6564.83428
2016.00	  95.96354	 -27.18863	 6861.20	 10217.86389	-17897.65840	 -5785.67575
2016.00	  95.96354	 -15.57573	 6861.20	 12988.90119	-17959.51658	 -4477.04746
2016.00	 107.96135	  -3.38218	 6861.20	 18769.84690	-12520.41254	 -3459.90947
2016.00	 107.96135	   8.61782	 6861.20	 19674.08258	-12737.12969	 -2426.75206
2016.00	 107.96135	  20.61782	 6861.20	 19740.00990	-13580.79476	 -1971.45380
2016.00	 107.96135	  32.61782	 6861.20	 19742.45812	-15119.18208	 -2505.05782
2016.00	 107.96135	  44.61782	 6861.20	 20718.28623	-17101.40312	 -3785.72453
2016.00	 107.96135	  56.61782	 6861.20	 23060.49400	-19169.98917	 -4903.91100
2016.00	 107.96135	  68.61782	 6861.20	 26102.82384	-21073.76035	 -5085.63058
2016.00	 107.96135	  80.61782	 6861.20	 28887.43210	-22705.06429	 -4208.93575
2016.00	 107.96135	  92.61782	 6861.20	 30561.15760	-24078.91240	 -2511.24611
2016.00	 107.96135	 104.61782	 6861.20	 30714.67422	-25196.97417	  -782.68264
2016.00	 107.96135	 116.61782	 6861.20	 30084.55763	-25882.73684	   349.77109
2016.00	 107.96135	 128.61782	 6861.20	 29397.00129	-26047.33302	  1313.86431
2016.00	 107.96135	 140.61782	 6861.20	 28399.19002	-25916.72670	  2532.66629
2016.00	 107.96135	 152.61782	 6861.20	 26780.21872	-25711.80487	  3815.46235
2016.00	 107.96135	 164.61782	 6861.20	 24559.34489	-25494.42544	  4869.51300
2016.00	 107.96135	 176.61782	 6861.20	 22003.71572	-25235.45974	  5463.70676
2016.00	 107.96135	-171.38218	 6861.20	 19495.84198	-24860.17935	  5635.07335
2016.00	 107.96135	-159.38218	 6861.20	 17167.75605	-24339.73738	  5628.09405
2016.00	 107.96135	-147.38218	 6861.20	 14921.72631	-23744.81078	  5542.39825
2016.00	 107.96135	-135.38218	 6861.20	 12762.02249	-23143.62500	  5302.67494
2016.00	 107.96135	-123.38218	 6861.20	 10789.25339	-22531.49433	  4929.41560
2016.00	 107.96135	-111.38218	 6861.20	  8894.00980	-21894.67504	  4497.31861
2016.00	 107.96135	 -99.38218	 6861.20	  6841.31058	-21214.96701	  3767.86506
2016.00	 107.96135	 -87.38218	 6861.20	  4891.39696	-20372.74903	  2197.80538
2016.00	 107.96135	 -75.38218	 6861.20	  4038.08561	-19261.38327	  -353.55942
2016.00	 107.96135	 -63.38218	 6861.20	  5116.41457	-17880.41419	 -3120.71194
2016.00	 107.96135	 -51.38218	 6861.20	  7859.42903	-16336.02951	 -5060.00561
2016.00	 107.96135	 -39.38218	 6861.20	 11238.97992	-14812.27309	 -5719.48553
2016.00	 107.96135	 -27.38218	 6861.20	 14358.94306	-13573.34773	 -5387.49521
2016.00	 107.96135	 -15.38218	 6861.20	 16919.86426	-12800.29470	 -4550.33947
2016.00	 119.95822	  -1.38218	 6861.20	 19182.70766	 -9082.58493	 -3376.35116
2016.00	 119.95822	  11.95115	 6861.20	 19774.64420	 -9180.30729	 -3119.12017
2016.00	 119.95822	  25.28449	 6861.20	 20493.41519	-10167.75813	 -3857.35355
2016.00	 119.95822	  38.61782	 6861.20	 22458.03937	-11693.88950	 -5471.89552
2016.00	 119.95822	  51.95115	 6861.20	 26191.00462	-13250.17984	 -7030.21601
2016.00	 119.95822	  65.28449	 6861.20	 30993.77177	-14628.44068	 -7453.04790
2016.00	 119.95822	  78.61782	 6861.20	 35549.11123	-15920.55623	 -6467.66626
2016.00	 119.95822	  91.95115	 6861.20	 38840.58870	-17286.35984	 -4411.13482
2016.00	 119.95822	 105.28449	 6861.20	 40364.70098	-18726.67334	 -2072.39780
2016.00	 119.95822	 118.61782	 6861.20	 40562.59476	-19865.37847	  -116.53439
2016.00	 119.95822	 131.95115	 6861.20	 39984.71258	-20478.52285	  1622.10489
2016.00	 119.95822	 145.28449	 6861.20	 38634.06729	-20783.31251	  3329.15669
2016.00	 119.95822	 158.61782	 6861.20	 36483.93886	-20999.01545	  4837.96383
2016.00	 119.95822	 171.95115	 6861.20	 33708.96777	-21182.59549	  5896.60932
2016.00	 119.95822	-174.71551	 6861.20	 30694.47844	-21257.66357	  6418.29574
2016.00	 119.95822	-161.38218	 6861.20	 27706.12561	-21183.07956	  6598.15725
2016.00	 119.95822	-148.04885	 6861.20	 24774.60580	-21003.47541	  6574.92244
2016.00	 119.95822	-134.71551	 6861.20	 21943.24102	-20717.49019	  6361.63883
2016.00	 119.95822	-121.38218	 6861.20	 19234.02825	-20251.19318	  6021.84437
2016.00	 119.95822	-108.04885	 6861.20	 16466.20556	-19609.23881	  5545.75749
2016.00	 119.95822	 -94.71551	 6861.20	 13513.74317	-18864.93429	  4516.67515
2016.00	 119.95822	 -81.38218	 6861.20	 11018.43384	-17924.81931	  2368.28771
2016.00	 119.95822	 -68.04885	 6861.20	 10194.53739	-16551.82077	  -597.26951
2016.00	 119.95822	 -54.71551	 6861.20	 11422.18139	-14745.95494	 -3154.38908
2016.00	 119.95822	 -41.38218	 6861.20	 13774.81126	-12828.02292	 -4405.80146
2016.00	 119.95822	 -28.04885	 6861.20	 16105.97070	-11125.52860	 -4509.40726
2016.00	 119.95822	 -14.71551	 6861.20	 17963.49650	 -9815.39852	 -4034.65895
2016.00	 131.82612	   1.22652	 6861.20	 19038.73295	 -8755.45351	 -3594.93478
2016.00	 131.82612	  16.87869	 6861.20	 19928.78465	 -8998.73112	 -4645.15653
2016.00	 131.82612	  32.53086	 6861.20	 22357.14586	 -9671.48027	 -6722.09945
2016.00	 131.82612	  48.18304	 6861.20	 27013.84813	-10138.69120	 -8816.78828
2016.00	 131.82612	  63.83521	 6861.20	 33221.81459	-10292.44759	 -9570.06090
2016.00	 131.82612	  79.48738	 6861.20	 39408.73396	-10556.12424	 -8463.21470
2016.00	 131.82612	  95.13956	 6861.20	 44227.56898	-11280.08888	 -5906.04553
2016.00	 131.82612	 110.79173	 6861.20	 46948.99119	-12396.06388	 -2776.72276
2016.00	 131.82612	 126.44391	 6861.20	 47653.05017	-13472.26776	   199.52807
2016.00	 131.82612	 142.09608	 6861.20	 46743.08087	-14337.98538	  2837.81387
2016.00	 131.82612	 157.74825	 6861.20	 44540.67218	-15129.72163	  5002.73434
2016.00	 131.82612	 173.40043	 6861.20	 41450.06324	-15919.90971	  6488.98437
2016.00	 131.82612	-170.94740	 6861.20	 37969.28422	-16614.30434	  7272.95920
2016.00	 131.82612	-155.29522	 6861.20	 34445.11960	-17139.14100	  7570.27012
2016.00	 131.82612	-139.64305	 6861.20	 30958.71608	-17459.50886	  7599.66642
2016.00	 131.82612	-123.99088	 6861.20	 27373.88182	-17514.62108	  7473.79765
2016.00	 131.82612	-108.33870	 6861.20	 23438.49901	-17340.87454	  7053.18939
2016.00	 131.82612	 -92.68653	 6861.20	 19279.74043	-17035.59584	  5714.26034
2016.00	 131.82612	 -77.03435	 6861.20	 16028.77221	-16356.18900	  2992.69904
2016.00	 131.82612	 -61.38218	 6861.20	 14946.11561	-14908.45969	  -281.04641
2016.00	 131.82612	 -45.73001	 6861.20	 15851.69676	-12864.83490	 -2574.57538
2016.00	 131.82612	 -30.07783	 6861.20	 17322.81836	-10865.99299	 -3395.07014
2016.00	 131.82612	 -14.42566	 6861.20	 18400.13379	 -9398.93901	 -3449.11291
2016.00	 143.52400	   6.00912	 6861.20	 20985.67385	-10381.94989	 -4732.97692
2016.00	 143.52400	  26.00912	 6861.20	 23423.96919	-10088.09734	 -7437.34199
2016.00	 143.52400	  46.00912	 6861.20	 28673.80395	 -9111.44017	-10233.04804
2016.00	 143.52400	  66.00912	 6861.20	 36054.85622	 -7433.96293	-11181.29272
2016.00	 143.52400	  86.00912	 6861.20	 43519.41612	 -6014.21092	 -9415.95467
2016.00	 143.52400	 106.00912	 6861.20	 49017.48014	 -5626.40947	 -5553.86938
2016.00	 143.52400	 126.00912	 6861.20	 51418.15609	 -6287.96706	 -1008.40785
2016.00	 143.52400	 146.00912	 6861.20	 50885.81760	 -7590.53508	  3029.02370
2016.00	 143.52400	 166.00912	 6861.20	 48283.07537	 -9262.31632	  5997.79201
2016.00	 143.52400	-173.99088	 6861.20	 44588.46562	-11009.65924	  7748.56278
2016.00	 143.52400	-153.99088	 6861.20	 40484.66859	-12537.25831	  8582.14810
2016.00	 143.52400	-133.99088	 6861.20	 36094.32944	-13747.27437	  8928.50632
2016.00	 143.52400	-113.99088	 6861.20	 31100.47865	-14778.74270	  8771.53290
2016.00	 143.52400	 -93.99088	 6861.20	 25699.09792	-15684.98599	  7296.98851
2016.00	 143.52400	 -73.99088	 6861.20	 21447.64736	-15812.41146	  4007.09655
2016.00	 143.52400	 -53.99088	 6861.20	 19740.02484	-14509.17769	   332.08704
2016.00	 143.52400	 -33.99088	 6861.20	 19822.31061	-12478.94998	 -1945.65261
2016.00	 143.52400	 -13.99088	 6861.20	 20229.94839	-10969.31450	 -3154.45678
2016.00	 155.25984	  14.47066	 6861.20	 26528.87763	-11743.70410	 -7076.13962
2016.00	 155.25984	  42.16297	 6861.20	 31431.77510	 -8890.09858	-10997.78184
2016.00	 155.25984	  69.85528	 6861.20	 39240.76926	 -4417.46154	-12141.54012
2016.00	 155.25984	  97.54759	 6861.20	 46971.40819	  -520.25407	 -8814.26431
2016.00	 155.25984	 125.23989	 6861.20	 51420.08315	   735.11211	 -2615.97378
2016.00	 155.25984	 152.93220	 6861.20	 51589.90467	  -757.74625	  3455.32349
2016.00	 155.25984	-179.37549	 6861.20	 48718.86209	 -3749.43082	  7576.51581
2016.00	 155.25984	-151.68318	 6861.20	 44267.29082	 -7077.75643	  9707.04382
2016.00	 155.25984	-123.99088	 6861.20	 38765.81790	-10354.51844	 10321.67104
2016.00	 155.25984	 -96.29857	 6861.20	 32625.08804	-13500.62505	  8807.60526
2016.00	 155.25984	 -68.60626	 6861.20	 27681.56989	-15174.52035	  4726.07676
2016.00	 155.25984	 -40.91395	 6861.20	 25352.88658	-14534.44633	   269.11124
2016.00	 155.25984	 -13.22165	 6861.20	 24943.64493	-13167.69185	 -3237.07364
2016.00	 167.29173	  40.18495	 6861.20	 36398.52837	 -7589.71887	-11537.07082
2016.00	 167.29173	  91.61352	 6861.20	 44215.66291	  2904.99758	-10413.76685
2016.00	 167.29173	 143.04209	 6861.20	 48687.99163	  6979.40092	   145.27074
2016.00	 167.29173	-165.52934	 6861.20	 46562.81668	  1789.39885	  9217.96918
2016.00	 167.29173	-114.10077	 6861.20	 40523.35982	 -7070.41146	 11171.51774
2016.00	 167.29173	 -62.67219	 6861.20	 34552.06523	-13712.97471	  5266.05709
2016.00	 167.29173	 -11.24362	 6861.20	 32635.13451	-13860.16372	 -3862.26103
2016.00	 180.00000	   0.00000	 6861.20	 41635.33207	-10231.89213	    -8.75234
2017.00	   0.00000	   0.00000	 6861.20	-46083.63198	 -1161.67671	 99999.00000
2017.00	  12.70827	  25.71429	 6861.20	-44472.63017	 -5878.24730	  1134.59214
2017.00	  12.70827	  77.14286	 6861.20	-46659.96019	 -3522.11340	  1714.08048
2017.00	  12.70827	 128.57143	 6861.20	-47214.22318	 -3687.56250	  -538.24265
2017.00	  12.70827	 180.00000	 6861.20	-46307.21065	 -4917.73854	   436.67250
2017.00	  12.70827	-128.57143	 6861.20	-46349.27072	 -2787.69335	  1031.69914
2017.00	  12.70827	 -77.14286	 6861.20	-45767.48469	 -2341.28066	 -1781.58031
2017.00	  12.70827	 -25.71429	 6861.20	-44230.23868	 -5327.43257	 -1992.24981
2017.00	  24.74016	   3.95604	 6861.20	-41053.88622	-10482.78156	  -198.99592
2017.00	  24.74016	  31.64835	 6861.20	-42260.93141	 -9973.13855	  1835.51732
2017.00	  24.74016	  59.34066	 6861.20	-44783.47579	 -8789.51992	  2611.69219
2017.00	  24.74016	  87.03297	 6861.20	-47218.41498	 -7781.96070	  1278.85466
2017.00	  24.74016	 114.72527	 6861.20	-47400.85026	 -8294.93565	 -1224.95244
2017.00	  24.74016	 142.41758	 6861.20	-45343.13193	-10221.39681	 -2003.48398
2017.00	  24.74016	 170.10989	 6861.20	-43538.60879	-11386.89176	  -185.37033
2017.00	  24.74016	-162.19780	 6861.20	-43582.23307	-10446.88390	  2170.03637
2017.00	  24.74016	-134.50549	 6861.20	-45061.91104	 -7986.68868	  2840.30454
2017.00	  24.74016	-106.81319	 6861.20	-46282.18134	 -5813.48545	   989.57435
2017.00	  24.74016	 -79.12088	 6861.20	-45724.07247	 -5741.95431	 -2041.18528
2017.00	  24.74016	 -51.42857	 6861.20	-43550.50240	 -7750.88498	 -3572.49817
2017.00	  24.74016	 -23.73626	 6861.20	-41545.96583	 -9792.32475	 -2506.67288
2017.00	  36.47600	  -2.96703	 6861.20	-36771.09335	-14952.44817	  -677.26654
2017.00	  36.47600	  17.03297	 6861.20	-37508.36729	-14758.83091	   946.81645
2017.00	  36.47600	  37.03297	 6861.20	-39074.02940	-14397.92019	  2045.12507
2017.00	  36.47600	  57.03297	 6861.20	-41364.58204	-14084.63253	  2465.81215
2017.00	  36.47600	  77.03297	 6861.20	-43829.88362	-13900.16397	  1826.77792
2017.00	  36.47600	  97.03297	 6861.20	-45193.86605	-13978.05955	     7.83492
2017.00	  36.47600	 117.03297	 6861.20	-44263.38904	-14666.29288	 -2136.20801
2017.00	  36.47600	 137.03297	 6861.20	-41350.46315	-15900.27691	 -2893.34203
2017.00	  36.47600	 157.03297	 6861.20	-38424.76293	-16781.46602	 -1586.45506
2017.00	  36.47600	 177.03297	 6861.20	-37095.67701	-16647.12029	   769.24760
2017.00	  36.47600	-162.96703	 6861.20	-37737.59112	-15577.72899	  2907.94363
2017.00	  36.47600	-142.96703	 6861.20	-39883.37016	-13902.91811	  3992.34230
2017.00	  36.47600	-122.96703	 6861.20	-42497.95981	-12005.88384	  3462.48688
2017.00	  36.47600	-102.96703	 6861.20	-44234.61750	-10534.52935	  1282.92683
2017.00	  36.47600	 -82.96703	 6861.20	-44027.01716	-10296.50154	 -1759.80785
2017.00	  36.47600	 -62.96703	 6861.20	-41796.76173	-11527.26436	 -3951.36800
2017.00	  36.47600	 -42.96703	 6861.20	-39014.39615	-13294.72005	 -4084.52527
2017.00	  36.47600	 -22.96703	 6861.20	-37187.60142	-14553.88908	 -2622.88793
2017.00	  48.17388	  -6.88008	 6861.20	-30173.65435	-19730.29476	  -955.47972
2017.00	  48.17388	   8.77210	 6861.20	-30920.53834	-19722.54684	   450.00883
2017.00	  48.17388	  24.42427	 6861.20	-32142.98131	-19542.58756	  1366.14793
2017.00	  48.17388	  40.07645	 6861.20	-33685.73230	-19419.99146	  1846.42443
2017.00	  48.17388	  55.72862	 6861.20	-35419.23663	-19615.70683	  1868.13738
2017.00	  48.17388	  71.38079	 6861.20	-37140.29989	-20094.61123	  1497.25931
2017.00	  48.17388	  87.03297	 6861.20	-38500.05105	-20549.70725	   616.45066
2017.00	  48.17388	 102.68514	 6861.20	-38810.77098	-20839.65205	  -841.68349
2017.00	  48.17388	 118.33731	 6861.20	-37385.30531	-21092.25349	 -2392.86239
2017.00	  48.17388	 133.98949	 6861.20	-34445.33104	-21341.54886	 -2949.93842
2017.00	  48.17388	 149.64166	 6861.20	-31396.44966	-21274.66507	 -1992.23105
2017.00	  48.17388	 165.29384	 6861.20	-29516.17644	-20683.77847	  -118.85419
2017.00	  48.17388	-179.05399	 6861.20	-29192.98891	-19742.99207	  1807.91883
2017.00	  48.17388	-163.40182	 6861.20	-30201.41231	-18792.59904	  3298.94935
2017.00	  48.17388	-147.74964	 6861.20	-32211.96557	-17943.31236	  4231.15855
2017.00	  48.17388	-132.09747	 6861.20	-34860.69790	-17062.73812	  4379.02206
2017.00	  48.17388	-116.44529	 6861.20	-37494.13368	-16110.63220	  3470.11286
2017.00	  48.17388	-100.79312	 6861.20	-39295.12404	-15293.03956	  1429.79870
2017.00	  48.17388	 -85.14095	 6861.20	-39377.29408	-15039.52154	 -1387.21541
2017.00	  48.17388	 -69.48877	 6861.20	-37430.05085	-15641.36954	 -3839.57372
2017.00	  48.17388	 -53.83660	 6861.20	-34464.55145	-16883.98062	 -4820.40068
2017.00	  48.17388	 -38.18442	 6861.20	-31864.20353	-18250.81503	 -4249.79666
2017.00	  48.17388	 -22.53225	 6861.20	-30390.14305	-19276.69569	 -2722.91870
2017.00	  60.04178	  -8.90906	 6861.20	-20357.21887	-23904.44169	 -1371.56736
2017.00	  60.04178	   4.42427	 6861.20	-21062.35292	-24280.60700	    27.89522
2017.00	  60.04178	  17.75760	 6861.20	-22239.50016	-24428.46998	   958.09520
2017.00	  60.04178	  31.09094	 6861.20	-23731.71182	-24418.67443	  1484.89586
2017.00	  60.04178	  44.42427	 6861.20	-25283.94569	-24533.32961	  1423.70679
2017.00	  60.04178	  57.75760	 6861.20	-26474.33764	-25045.83939	  1024.11776
2017.00	  60.04178	  71.09094	 6861.20	-27362.02980	-25825.59890	   638.55787
2017.00	  60.04178	  84.42427	 6861.20	-28059.92231	-26552.82958	   201.22275
2017.00	  60.04178	  97.75760	 6861.20	-28358.71242	-26934.17303	  -480.45209
2017.00	  60.04178	 111.09094	 6861.20	-27784.61149	-26855.63200	 -1460.64537
2017.00	  60.04178	 124.42427	 6861.20	-25970.68398	-26444.00085	 -2230.79383
2017.00	  60.04178	 137.75760	 6861.20	-23477.45332	-25724.82372	 -2008.12892
2017.00	  60.04178	 151.09094	 6861.20	-21457.80221	-24658.00640	  -775.17165
2017.00	  60.04178	 164.42427	 6861.20	-20595.57267	-23361.80913	   865.76942
2017.00	  60.04178	 177.75760	 6861.20	-20908.28931	-22080.05982	  2296.67865
2017.00	  60.04178	-168.90906	 6861.20	-21960.93154	-21106.63593	  3234.82377
2017.00	  60.04178	-155.57573	 6861.20	-23391.08437	-20560.52144	  3847.91422
2017.00	  60.04178	-142.24240	 6861.20	-25234.77180	-20274.43576	  4252.55173
2017.00	  60.04178	-128.90906	 6861.20	-27466.86691	-20032.53512	  4222.79317
2017.00	  60.04178	-115.57573	 6861.20	-29754.40648	-19714.09185	  3511.02413
2017.00	  60.04178	-102.24240	 6861.20	-31555.52693	-19298.66087	  1931.70428
2017.00	  60.04178	 -88.90906	 6861.20	-32115.63831	-18950.24979	  -465.82344
2017.00	  60.04178	 -75.57573	 6861.20	-30890.41369	-18940.65168	 -3048.41531
2017.00	  60.04178	 -62.24240	 6861.20	-28185.90591	-19494.40083	 -4874.69667
2017.00	  60.04178	 -48.90906	 6861.20	-24999.06358	-20601.44679	 -5400.22703
2017.00	  60.04178	 -35.57573	 6861.20	-22300.94947	-21960.28143	 -4678.14297
2017.00	  60.04178	 -22.24240	 6861.20	-20684.35279	-23146.69180	 -3137.63969
2017.00	  72.03865	  -9.57573	 6861.20	 -7754.97766	-25710.64645	 -2046.14094
2017.00	  72.03865	   2.42427	 6861.20	 -8065.65679	-26467.24170	  -618.03328
2017.00	  72.03865	  14.42427	 6861.20	 -8941.48055	-27024.92015	   414.50628
2017.00	  72.03865	  26.42427	 6861.20	-10342.61472	-27375.81541	  1120.49061
2017.00	  72.03865	  38.42427	 6861.20	-12056.13411	-27704.61239	  1140.20486
2017.00	  72.03865	  50.42427	 6861.20	-13313.88474	-28277.38816	   535.94811
2017.00	  72.03865	  62.42427	 6861.20	-13875.68536	-29141.81361	   -53.62178
2017.00	  72.03865	  74.42427	 6861.20	-14088.55443	-30108.54687	  -365.65013
2017.00	  72.03865	  86.42427	 6861.20	-14148.75394	-30904.16483	  -466.40414
2017.00	  72.03865	  98.42427	 6861.20	-14173.41182	-31200.39609	  -518.86048
2017.00	  72.03865	 110.42427	 6861.20	-13979.46932	-30876.73364	  -839.38686
2017.00	  72.03865	 122.42427	 6861.20	-13061.75761	-30110.48172	 -1205.63448
2017.00	  72.03865	 134.42427	 6861.20	-11682.01535	-29013.86541	  -892.90060
2017.00	  72.03865	 146.42427	 6861.20	-10724.33703	-27648.29639	   170.37242
2017.00	  72.03865	 158.42427	 6861.20	-10657.11236	-26189.00928	  1536.65756
2017.00	  72.03865	 170.42427	 6861.20	-11507.19969	-24824.13523	  2741.65563
2017.00	  72.03865	-177.57573	 6861.20	-12889.11067	-23728.72683	  3430.84942
2017.00	  72.03865	-165.57573	 6861.20	-14250.06662	-23012.38941	  3676.97542
2017.00	  72.03865	-153.57573	 6861.20	-15463.17459	-22623.25710	  3843.21904
2017.00	  72.03865	-141.57573	 6861.20	-16819.14424	-22447.01069	  4012.59701
2017.00	  72.03865	-129.57573	 6861.20	-18428.19229	-22390.51231	  3965.99601
2017.00	  72.03865	-117.57573	 6861.20	-20151.67864	-22332.73533	  3544.55820
2017.00	  72.03865	-105.57573	 6861.20	-21792.55441	-22098.45936	  2569.90565
2017.00	  72.03865	 -93.57573	 6861.20	-22859.49637	-21652.97608	   809.62412
2017.00	  72.03865	 -81.57573	 6861.20	-22672.68960	-21188.80743	 -1560.78301
2017.00	  72.03865	 -69.57573	 6861.20	-20917.23669	-21008.10736	 -3937.27928
2017.00	  72.03865	 -57.57573	 6861.20	-17840.75697	-21368.37878	 -5624.20613
2017.00	  72.03865	 -45.57573	 6861.20	-14156.97820	-22307.20843	 -6143.75279
2017.00	  72.03865	 -33.57573	 6861.20	-10797.45517	-23555.10288	 -5416.83102
2017.00	  72.03865	 -21.57573	 6861.20	 -8561.19747	-24743.62706	 -3834.80482
2017.00	  84.03646	  -9.76928	 6861.20	  4982.53355	-23549.00970	 -2924.81272
2017.00	  84.03646	   1.84363	 6861.20	  5387.76097	-24462.80521	 -1467.27858
2017.00	  84.03646	  13.45653	 6861.20	  5021.05286	-25274.20515	  -304.46266
2017.00	  84.03646	  25.06943	 6861.20	  3855.04773	-25999.34553	   492.77320
2017.00	  84.03646	  36.68234	 6861.20	  2233.08013	-26843.66613	   467.50476
2017.00	  84.03646	  48.29524	 6861.20	  1121.98704	-27938.08062	  -320.69901
2017.00	  84.03646	  59.90814	 6861.20	   950.44035	-29250.27612	 -1115.30707
2017.00	  84.03646	  71.52105	 6861.20	  1333.32642	-30605.98498	 -1442.13008
2017.00	  84.03646	  83.13395	 6861.20	  1850.96614	-31726.30838	 -1251.68972
2017.00	  84.03646	  94.74685	 6861.20	  2036.13695	-32303.57999	  -654.57907
2017.00	  84.03646	 106.35976	 6861.20	  1694.88025	-32220.02576	  -214.51075
2017.00	  84.03646	 117.97266	 6861.20	  1520.20220	-31617.32521	  -205.52535
2017.00	  84.03646	 129.58556	 6861.20	  1837.23757	-30690.31133	    82.54694
2017.00	  84.03646	 141.19846	 6861.20	  1905.64411	-29553.85929	  1025.34891
2017.00	  84.03646	 152.81137	 6861.20	  1234.01425	-28352.14384	  2245.19932
2017.00	  84.03646	 164.42427	 6861.20	  -173.50437	-27228.90596	  3354.55182
2017.00	  84.03646	 176.03717	 6861.20	 -2052.89548	-26279.96489	  4012.16477
2017.00	  84.03646	-172.34992	 6861.20	 -3845.09124	-25521.41748	  4132.69428
2017.00	  84.03646	-160.73702	 6861.20	 -5226.88331	-24910.29037	  4057.50007
2017.00	  84.03646	-149.12412	 6861.20	 -6415.99207	-24416.72198	  4049.41361
2017.00	  84.03646	-137.51121	 6861.20	 -7667.04158	-24060.00547	  4014.09284
2017.00	  84.03646	-125.89831	 6861.20	 -8977.47779	-23820.98005	  3809.56527
2017.00	  84.03646	-114.28541	 6861.20	-10360.57390	-23596.09576	  3414.79012
2017.00	  84.03646	-102.67250	 6861.20	-11863.46963	-23208.17619	  2594.54080
2017.00	  84.03646	 -91.05960	 6861.20	-13030.90129	-22587.82659	   960.69560
2017.00	  84.03646	 -79.44670	 6861.20	-13048.18158	-21880.99739	 -1408.16686
2017.00	  84.03646	 -67.83379	 6861.20	-11395.95761	-21367.15016	 -3955.98427
2017.00	  84.03646	 -56.22089	 6861.20	 -8097.61116	-21224.05844	 -5937.04445
2017.00	  84.03646	 -44.60799	 6861.20	 -3790.12522	-21464.70991	 -6731.03635
2017.00	  84.03646	 -32.99508	 6861.20	   394.25706	-21980.92620	 -6142.15182
2017.00	  84.03646	 -21.38218	 6861.20	  3416.39595	-22684.40828	 -4640.67302
2017.00	  95.96354	  -3.96283	 6861.20	 14753.97036	-18437.21000	 -3001.10297
2017.00	  95.96354	   7.65008	 6861.20	 15436.51309	-19138.27696	 -1701.78290
2017.00	  95.96354	  19.26298	 6861.20	 15116.57257	-20009.92777	  -740.17063
2017.00	  95.96354	  30.87588	 6861.20	 14109.32127	-21234.37829	  -581.09137
2017.00	  95.96354	  42.48879	 6861.20	 13404.16069	-22859.67718	 -1369.72652
2017.00	  95.96354	  54.10169	 6861.20	 13793.46214	-24721.51697	 -2444.89874
2017.00	  95.96354	  65.71459	 6861.20	 15089.59789	-26590.65715	 -2993.73059
2017.00	  95.96354	  77.32750	 6861.20	 16606.43938	-28226.36008	 -2750.03413
2017.00	  95.96354	  88.94040	 6861.20	 17642.40981	-29424.62968	 -1746.02789
2017.00	  95.96354	 100.55330	 6861.20	 17569.04663	-30085.03596	  -490.62682
2017.00	  95.96354	 112.16621	 6861.20	 16774.21008	-30213.49727	   227.68267
2017.00	  95.96354	 123.77911	 6861.20	 16224.04465	-29885.03284	   624.81190
2017.00	  95.96354	 135.39201	 6861.20	 15777.17066	-29277.29340	  1442.26424
2017.00	  95.96354	 147.00492	 6861.20	 14781.71530	-28588.93422	  2616.81526
2017.00	  95.96354	 158.61782	 6861.20	 13113.34799	-27917.07321	  3753.19098
2017.00	  95.96354	 170.23072	 6861.20	 10953.71911	-27303.14926	  4547.30303
2017.00	  95.96354	-178.15637	 6861.20	  8702.41892	-26717.46119	  4828.42986
2017.00	  95.96354	-166.54347	 6861.20	  6759.19962	-26081.96374	  4768.78958
2017.00	  95.96354	-154.93057	 6861.20	  5114.33975	-25390.69539	  4674.38200
2017.00	  95.96354	-143.31766	 6861.20	  3544.38428	-24723.30491	  4573.67536
2017.00	  95.96354	-131.70476	 6861.20	  2020.37263	-24136.65696	  4344.77133
2017.00	  95.96354	-120.09186	 6861.20	   587.37776	-23632.57748	  4006.77496
2017.00	  95.96354	-108.47895	 6861.20	  -937.52288	-23143.76333	  3549.83170
2017.00	  95.96354	 -96.86605	 6861.20	 -2612.08279	-22548.59934	  2579.89766
2017.00	  95.96354	 -85.25315	 6861.20	 -3824.31176	-21736.79052	   686.18609
2017.00	  95.96354	 -73.64024	 6861.20	 -3608.64884	-20802.36457	 -1949.33762
2017.00	  95.96354	 -62.02734	 6861.20	 -1458.04229	-19888.41465	 -4536.09660
2017.00	  95.96354	 -50.41444	 6861.20	  2261.97804	-19032.30506	 -6211.04741
2017.00	  95.96354	 -38.80154	 6861.20	  6554.00753	-18292.70014	 -6538.97132
2017.00	  95.96354	 -27.18863	 6861.20	 10324.29013	-17871.59891	 -5741.23899
2017.00	  95.96354	 -15.57573	 6861.20	 13068.54276	-17942.20324	 -4424.29622
2017.00	 107.96135	  -3.38218	 6861.20	 18795.49496	-12483.49970	 -3404.92441
2017.00	 107.96135	   8.61782	 6861.20	 19660.32286	-12713.63981	 -2380.01014
2017.00	 107.96135	  20.61782	 6861.20	 19705.85574	-13579.63637	 -1951.55141
2017.00	 107.96135	  32.61782	 6861.20	 19717.95435	-15141.77105	 -2513.29793
2017.00	 107.96135	  44.61782	 6861.20	 20724.14912	-17142.95065	 -3805.01467
2017.00	 107.96135	  56.61782	 6861.20	 23092.11893	-19218.45968	 -4909.10178
2017.00	 107.96135	  68.61782	 6861.20	 26133.64225	-21122.68692	 -5066.35086
2017.00	 107.96135	  80.61782	 6861.20	 28892.67264	-22754.18725	 -4175.64803
2017.00	 107.96135	  92.61782	 6861.20	 30533.23921	-24125.30441	 -2483.45656
2017.00	 107.96135	 104.61782	 6861.20	 30669.47028	-25239.45260	  -777.78310
2017.00	 107.96135	 116.61782	 6861.20	 30045.96125	-25912.92684	   333.40779
2017.00	 107.96135	 128.61782	 6861.20	 29376.83827	-26061.33699	  1291.07875
2017.00	 107.96135	 140.61782	 6861.20	 28394.29781	-25916.18172	  2514.55936
2017.00	 107.96135	 152.61782	 6861.20	 26780.53248	-25703.11947	  3807.14044
2017.00	 107.96135	 164.61782	 6861.20	 24559.97768	-25480.54866	  4865.59858
2017.00	 107.96135	 176.61782	 6861.20	 22003.61816	-25219.29870	  5465.06814
2017.00	 107.96135	-171.38218	 6861.20	 19491.20995	-24842.20325	  5640.03734
2017.00	 107.96135	-159.38218	 6861.20	 17153.58910	-24319.96911	  5634.73126
2017.00	 107.96135	-147.38218	 6861.20	 14899.39510	-23722.88375	  5542.69432
2017.00	 107.96135	-135.38218	 6861.20	 12737.25371	-23119.29299	  5295.89015
2017.00	 107.96135	-123.38218	 6861.20	 10766.64566	-22502.60621	  4914.57233
2017.00	 107.96135	-111.38218	 6861.20	  8875.50972	-21863.40352	  4475.47767
2017.00	 107.96135	 -99.38218	 6861.20	  6828.90363	-21174.72734	  3737.44795
2017.00	 107.96135	 -87.38218	 6861.20	  4892.89084	-20323.49611	  2153.51775
2017.00	 107.96135	 -75.38218	 6861.20	  4074.22284	-19202.54090	  -405.74911
2017.00	 107.96135	 -63.38218	 6861.20	  5193.60158	-17816.73380	 -3161.71418
2017.00	 107.96135	 -51.38218	 6861.20	  7960.59178	-16269.18391	 -5070.87324
2017.00	 107.96135	 -39.38218	 6861.20	 11335.77535	-14749.85645	 -5701.08862
2017.00	 107.96135	 -27.38218	 6861.20	 14438.38335	-13517.58628	 -5350.34182
2017.00	 107.96135	 -15.38218	 6861.20	 16977.55698	-12752.84150	 -4502.31088
2017.00	 119.95822	  -1.38218	 6861.20	 19164.78064	 -9045.67935	 -3334.77685
2017.00	 119.95822	  11.95115	 6861.20	 19735.49205	 -9167.71344	 -3099.12618
2017.00	 119.95822	  25.28449	 6861.20	 20467.86754	-10174.01134	 -3871.99748
2017.00	 119.95822	  38.61782	 6861.20	 22474.15983	-11710.15333	 -5502.51200
2017.00	 119.95822	  51.95115	 6861.20	 26244.26153	-13269.58318	 -7049.16142
2017.00	 119.95822	  65.28449	 6861.20	 31055.45697	-14650.15408	 -7442.10922
2017.00	 119.95822	  78.61782	 6861.20	 35586.64995	-15949.30231	 -6435.78250
2017.00	 119.95822	  91.95115	 6861.20	 38844.97306	-17323.84242	 -4381.64344
2017.00	 119.95822	 105.28449	 6861.20	 40349.86312	-18763.92021	 -2061.96555
2017.00	 119.95822	 118.61782	 6861.20	 40548.46899	-19891.97293	  -120.14081
2017.00	 119.95822	 131.95115	 6861.20	 39975.36001	-20490.22381	  1615.53182
2017.00	 119.95822	 145.28449	 6861.20	 38625.76809	-20781.94516	  3325.21926
2017.00	 119.95822	 158.61782	 6861.20	 36476.37984	-20989.49825	  4837.11616
2017.00	 119.95822	 171.95115	 6861.20	 33698.56606	-21166.08438	  5897.78562
2017.00	 119.95822	-174.71551	 6861.20	 30679.96069	-21238.60991	  6423.78241
2017.00	 119.95822	-161.38218	 6861.20	 27682.99825	-21161.63762	  6606.39298
2017.00	 119.95822	-148.04885	 6861.20	 24742.69864	-20981.48405	  6577.26647
2017.00	 119.95822	-134.71551	 6861.20	 21908.15324	-20691.47209	  6356.93533
2017.00	 119.95822	-121.38218	 6861.20	 19200.38970	-20222.17056	  6008.71072
2017.00	 119.95822	-108.04885	 6861.20	 16434.46693	-19575.54209	  5526.63361
2017.00	 119.95822	 -94.71551	 6861.20	 13487.41081	-18825.67723	  4486.74758
2017.00	 119.95822	 -81.38218	 6861.20	 11009.52726	-17876.57062	  2326.72519
2017.00	 119.95822	 -68.04885	 6861.20	 10218.33413	-16491.43668	  -639.80120
2017.00	 119.95822	 -54.71551	 6861.20	 11473.21721	-14675.33360	 -3173.02610
2017.00	 119.95822	 -41.38218	 6861.20	 13826.99681	-12757.55765	 -4394.69737
2017.00	 119.95822	 -28.04885	 6861.20	 16142.58784	-11060.66901	 -4477.61867
2017.00	 119.95822	 -14.71551	 6861.20	 17976.26708	 -9760.35478	 -3992.72425
2017.00	 131.82612	   1.22652	 6861.20	 18997.24105	 -8736.09717	 -3575.54033
2017.00	 131.82612	  16.87869	 6861.20	 19893.59449	 -8995.86934	 -4655.24547
2017.00	 131.82612	  32.53086	 6861.20	 22357.07792	 -9668.52247	 -6754.96284
2017.00	 131.82612	  48.18304	 6861.20	 27055.92349	-10131.59786	 -8842.91097
2017.00	 131.82612	  63.83521	 6861.20	 33281.65302	-10285.93363	 -9568.06207
2017.00	 131.82612	  79.48738	 6861.20	 39452.82479	-10563.85556	 -8439.25491
2017.00	 131.82612	  95.13956	 6861.20	 44248.63616	-11301.58943	 -5882.17378
2017.00	 131.82612	 110.79173	 6861.20	 46955.78562	-12417.35334	 -2762.96088
2017.00	 131.82612	 126.44391	 6861.20	 47654.43445	-13483.01170	   206.61142
2017.00	 131.82612	 142.09608	 6861.20	 46736.25902	-14339.59707	  2843.73207
2017.00	 131.82612	 157.74825	 6861.20	 44527.36973	-15121.83301	  5010.18095
2017.00	 131.82612	 173.40043	 6861.20	 41428.24728	-15903.83608	  6496.69367
2017.00	 131.82612	-170.94740	 6861.20	 37938.78758	-16595.16138	  7282.95237
2017.00	 131.82612	-155.29522	 6861.20	 34403.80270	-17117.46195	  7578.83171
2017.00	 131.82612	-139.64305	 6861.20	 30910.11179	-17436.77685	  7599.07754
2017.00	 131.82612	-123.99088	 6861.20	 27322.53695	-17488.15855	  7464.76125
2017.00	 131.82612	-108.33870	 6861.20	 23388.18822	-17311.19372	  7035.23807
2017.00	 131.82612	 -92.68653	 6861.20	 19239.02742	-16999.67305	  5685.45204
2017.00	 131.82612	 -77.03435	 6861.20	 16008.34825	-16310.37038	  2956.50368
2017.00	 131.82612	 -61.38218	 6861.20	 14950.53168	-14849.64057	  -307.62162
2017.00	 131.82612	 -45.73001	 6861.20	 15866.04157	-12800.50474	 -2574.03865
2017.00	 131.82612	 -30.07783	 6861.20	 17324.86750	-10809.89603	 -3370.20341
2017.00	 131.82612	 -14.42566	 6861.20	 18378.35320	 -9358.29420	 -3417.49885
2017.00	 143.52400	   6.00912	 6861.20	 20943.02127	-10373.20786	 -4736.93024
2017.00	 143.52400	  26.00912	 6861.20	 23405.02248	-10077.30285	 -7465.61333
2017.00	 143.52400	  46.00912	 6861.20	 28691.78965	 -9089.09946	-10259.65883
2017.00	 143.52400	  66.00912	 6861.20	 36095.86510	 -7411.19459	-11184.92691
2017.00	 143.52400	  86.00912	 6861.20	 43555.92846	 -6005.89006	 -9396.90102
2017.00	 143.52400	 106.00912	 6861.20	 49036.67569	 -5622.77953	 -5535.97394
2017.00	 143.52400	 126.00912	 6861.20	 51418.01222	 -6281.85110	  -998.91221
2017.00	 143.52400	 146.00912	 6861.20	 50873.86436	 -7585.76408	  3045.74239
2017.00	 143.52400	 166.00912	 6861.20	 48258.86877	 -9252.61641	  6012.22388
2017.00	 143.52400	-173.99088	 6861.20	 44547.04256	-10996.15871	  7763.26367
2017.00	 143.52400	-153.99088	 6861.20	 40428.27804	-12522.52264	  8593.16016
2017.00	 143.52400	-133.99088	 6861.20	 36028.00180	-13732.46064	  8928.74815
2017.00	 143.52400	-113.99088	 6861.20	 31032.46870	-14760.57619	  8758.08627
2017.00	 143.52400	 -93.99088	 6861.20	 25641.33184	-15657.04148	  7269.97507
2017.00	 143.52400	 -73.99088	 6861.20	 21409.76724	-15772.23112	  3976.82666
2017.00	 143.52400	 -53.99088	 6861.20	 19720.40504	-14457.41596	   318.99406
2017.00	 143.52400	 -33.99088	 6861.20	 19800.52047	-12432.04058	 -1933.82690
2017.00	 143.52400	 -13.99088	 6861.20	 20192.37694	-10942.48684	 -3137.68190
2017.00	 155.25984	  14.47066	99999.00	 99999.00000	 99999.00000	 99999.00000
2017.00	 155.25984	  42.16297	 6861.20	 31423.95401	 -8861.14496	-11019.75093
2017.00	 155.25984	  69.85528	 6861.20	 39254.06960	 -4369.24841	-12137.72909
2017.00	 155.25984	  97.54759	 6861.20	 46979.91361	  -487.91689	 -8787.62755
2017.00	 155.25984	 125.23989	 6861.20	 51408.75742	   754.59247	 -2572.15133
2017.00	 155.25984	 152.93220	 6861.20	 51562.06298	  -745.16726	  3484.74957
2017.00	 155.25984	-179.37549	 6861.20	 48674.73923	 -3750.31596	  7581.34503
2017.00	 155.25984	-151.68318	99999.00	 99999.00000	 99999.00000	 99999.00000
2017.00	 155.25984	-123.99088	 6861.20	 38690.67377	-10356.75272	 10316.26332
2017.00	 155.25984	 -96.29857	 6861.20	 32555.91581	-13488.12397	  8783.83191
2017.00	 155.25984	 -68.60626	 6861.20	 27627.26360	-15144.13404	  4702.78556
2017.00	 155.25984	 -40.91395	99999.00	 99999.00000	 99999.00000	 99999.00000
2017.00	 155.25984	 -13.22165	99999.00	 99999.00000	 99999.00000	 99999.00000
2017.00	 167.29173	  40.18495	 6861.20	 36374.40182	 -7511.78397	-11555.15567
2017.00	 167.29173	  91.61352	 6861.20	 44197.04035	  2944.76558	-10387.59448
2017.00	 167.29173	 143.04209	 6861.20	 48655.28597	  6992.76686	   185.73572
2017.00	 167.29173	-165.52934	 6861.20	 46513.55171	  1762.94566	  9247.18906
2017.00	 167.29173	-114.10077	 6861.20	 40448.88561	 -7086.17966	 11178.40174
2017.00	 167.29173	 -62.67219	 6861.20	 34491.13989	-13701.86609	  5241.17412
2017.00	 167.29173	 -11.24362	99999.00	 99999.00000	 99999.00000	 99999.00000
2017.00	 180.00000	   0.00000	99999.00	 99999.00000	 99999.00000	 99999.00000
2018.00	   0.00000	   0.00000	 6861.20	-46097.62672	 -1148.02822	 99999.00000
2018.00	  12.70827	  25.71429	 6861.20	-44502.36508	 -5849.05758	  1172.56960
2018.00	  12.70827	  77.14286	 6861.20	-46692.83004	 -3484.11925	  1709.74923
2018.00	  12.70827	 128.57143	 6861.20	-47237.91997	 -3662.24760	  -564.96692
2018.00	  12.70827	 180.00000	 6861.20	-46312.40680	 -4921.95592	   377.69849
2018.00	  12.70827	-128.57143	 6861.20	-46324.22384	 -2838.95369	  1006.97823
2018.00	  12.70827	 -77.14286	 6861.20	-45753.19308	 -2390.23201	 -1750.12497
2018.00	  12.70827	 -25.71429	 6861.20	-44242.54212	 -5338.00569	 -1940.60065
2018.00	  24.74016	   3.95604	 6861.20	-41082.44926	-10480.36618	  -149.76862
2018.00	  24.74016	  31.64835	 6861.20	-42304.56834	 -9952.12745	  1870.25707
2018.00	  24.74016	  59.34066	 6861.20	-44834.60793	 -8754.31947	  2623.33622
2018.00	  24.74016	  87.03297	 6861.20	-47259.65124	 -7746.11665	  1265.91725
2018.00	  24.74016	 114.72527	 6861.20	-47424.08031	 -8273.23067	 -1246.07072
2018.00	  24.74016	 142.41758	 6861.20	-45371.83911	-10205.09477	 -2027.32972
2018.00	  24.74016	 170.10989	 6861.20	-43556.78870	-11377.33474	  -234.48369
2018.00	  24.74016	-162.19780	 6861.20	-43557.14907	-10461.76491	  2109.28248
2018.00	  24.74016	-134.50549	 6861.20	-45002.29965	 -8023.55123	  2800.95244
2018.00	  24.74016	-106.81319	 6861.20	-46218.40670	 -5864.04432	   987.91725
2018.00	  24.74016	 -79.12088	 6861.20	-45680.30935	 -5793.92744	 -2017.81217
2018.00	  24.74016	 -51.42857	 6861.20	-43532.55707	 -7793.12676	 -3528.19581
2018.00	  24.74016	 -23.73626	 6861.20	-41553.02165	 -9813.07733	 -2454.51577
2018.00	  36.47600	  -2.96703	 6861.20	-36790.80213	-14961.46903	  -625.06652
2018.00	  36.47600	  17.03297	 6861.20	-37547.45544	-14753.37596	   990.19175
2018.00	  36.47600	  37.03297	 6861.20	-39127.96879	-14381.49522	  2077.95281
2018.00	  36.47600	  57.03297	 6861.20	-41429.36225	-14058.77693	  2484.72607
2018.00	  36.47600	  77.03297	 6861.20	-43897.30051	-13865.02677	  1824.84544
2018.00	  36.47600	  97.03297	 6861.20	-45245.32312	-13942.58795	   -14.77161
2018.00	  36.47600	 117.03297	 6861.20	-44294.08624	-14642.45499	 -2161.83953
2018.00	  36.47600	 137.03297	 6861.20	-41379.81005	-15888.50551	 -2914.02491
2018.00	  36.47600	 157.03297	 6861.20	-38456.92409	-16776.76858	 -1616.31883
2018.00	  36.47600	 177.03297	 6861.20	-37107.23901	-16645.77545	   720.80346
2018.00	  36.47600	-162.96703	 6861.20	-37709.55840	-15580.95917	  2852.39071
2018.00	  36.47600	-142.96703	 6861.20	-39818.61712	-13910.98164	  3948.30383
2018.00	  36.47600	-122.96703	 6861.20	-42415.10825	-12023.07197	  3434.52013
2018.00	  36.47600	-102.96703	 6861.20	-44149.78952	-10565.59815	  1272.26865
2018.00	  36.47600	 -82.96703	 6861.20	-43951.01293	-10341.71758	 -1748.87667
2018.00	  36.47600	 -62.96703	 6861.20	-41739.38662	-11577.45453	 -3920.88698
2018.00	  36.47600	 -42.96703	 6861.20	-38982.93298	-13337.94250	 -4038.31975
2018.00	  36.47600	 -22.96703	 6861.20	-37182.77817	-14581.29024	 -2568.73453
2018.00	  48.17388	  -6.88008	 6861.20	-30180.47480	-19749.59959	  -900.07713
2018.00	  48.17388	   8.77210	 6861.20	-30949.87626	-19731.26239	   499.30383
2018.00	  48.17388	  24.42427	 6861.20	-32189.38781	-19542.49177	  1407.07239
2018.00	  48.17388	  40.07645	 6861.20	-33746.29154	-19412.48880	  1876.86145
2018.00	  48.17388	  55.72862	 6861.20	-35490.57275	-19604.40495	  1891.55184
2018.00	  48.17388	  71.38079	 6861.20	-37224.03327	-20075.01852	  1509.48413
2018.00	  48.17388	  87.03297	 6861.20	-38586.14810	-20522.71814	   608.33846
2018.00	  48.17388	 102.68514	 6861.20	-38880.71097	-20813.16140	  -868.79015
2018.00	  48.17388	 118.33731	 6861.20	-37432.67602	-21074.49134	 -2424.63941
2018.00	  48.17388	 133.98949	 6861.20	-34479.08425	-21336.53825	 -2977.33056
2018.00	  48.17388	 149.64166	 6861.20	-31426.05690	-21278.68494	 -2017.59353
2018.00	  48.17388	 165.29384	 6861.20	-29536.84244	-20690.91868	  -150.43081
2018.00	  48.17388	-179.05399	 6861.20	-29193.92193	-19745.56104	  1769.03298
2018.00	  48.17388	-163.40182	 6861.20	-30175.76824	-18787.46337	  3256.69660
2018.00	  48.17388	-147.74964	 6861.20	-32161.57703	-17931.25837	  4193.77418
2018.00	  48.17388	-132.09747	 6861.20	-34791.65220	-17047.97541	  4346.82663
2018.00	  48.17388	-116.44529	 6861.20	-37411.09807	-16102.34301	  3441.26167
2018.00	  48.17388	-100.79312	 6861.20	-39200.68187	-15300.74820	  1407.51136
2018.00	  48.17388	 -85.14095	 6861.20	-39276.76292	-15064.55845	 -1394.74159
2018.00	  48.17388	 -69.48877	 6861.20	-37335.57085	-15680.98545	 -3826.18086
2018.00	  48.17388	 -53.83660	 6861.20	-34388.65484	-16930.34913	 -4787.76187
2018.00	  48.17388	 -38.18442	 6861.20	-31815.68173	-18293.53254	 -4201.03685
2018.00	  48.17388	 -22.53225	 6861.20	-30368.39153	-19308.88764	 -2666.34215
2018.00	  60.04178	  -8.90906	 6861.20	-20345.16826	-23930.00292	 -1313.23611
2018.00	  60.04178	   4.42427	 6861.20	-21074.55443	-24297.67234	    80.64098
2018.00	  60.04178	  17.75760	 6861.20	-22271.55492	-24438.87431	  1005.00773
2018.00	  60.04178	  31.09094	 6861.20	-23782.98931	-24422.74547	  1522.59094
2018.00	  60.04178	  44.42427	 6861.20	-25346.83563	-24536.20551	  1450.06727
2018.00	  60.04178	  57.75760	 6861.20	-26547.13399	-25048.53266	  1047.52903
2018.00	  60.04178	  71.09094	 6861.20	-27452.50740	-25824.30771	   655.67287
2018.00	  60.04178	  84.42427	 6861.20	-28160.36880	-26547.31234	   200.61411
2018.00	  60.04178	  97.75760	 6861.20	-28450.49150	-26925.84510	  -500.74447
2018.00	  60.04178	 111.09094	 6861.20	-27855.37436	-26848.42880	 -1492.96389
2018.00	  60.04178	 124.42427	 6861.20	-26017.12396	-26442.14077	 -2267.48519
2018.00	  60.04178	 137.75760	 6861.20	-23503.97054	-25733.64503	 -2040.33236
2018.00	  60.04178	 151.09094	 6861.20	-21473.59992	-24671.18254	  -801.70949
2018.00	  60.04178	 164.42427	 6861.20	-20603.00129	-23374.59397	   841.48093
2018.00	  60.04178	 177.75760	 6861.20	-20905.64914	-22085.48341	  2271.11628
2018.00	  60.04178	-168.90906	 6861.20	-21945.32172	-21101.81833	  3208.74404
2018.00	  60.04178	-155.57573	 6861.20	-23363.30198	-20542.27222	  3822.73168
2018.00	  60.04178	-142.24240	 6861.20	-25197.36357	-20246.49188	  4228.61554
2018.00	  60.04178	-128.90906	 6861.20	-27419.58346	-19998.86440	  4194.68488
2018.00	  60.04178	-115.57573	 6861.20	-29691.96537	-19683.42374	  3477.46945
2018.00	  60.04178	-102.24240	 6861.20	-31472.70729	-19279.36964	  1896.62392
2018.00	  60.04178	 -88.90906	 6861.20	-32014.13845	-18943.88179	  -492.77170
2018.00	  60.04178	 -75.57573	 6861.20	-30777.37925	-18952.17479	 -3061.62382
2018.00	  60.04178	 -62.24240	 6861.20	-28073.04994	-19523.44139	 -4865.33832
2018.00	  60.04178	 -48.90906	 6861.20	-24901.40046	-20641.66386	 -5370.34831
2018.00	  60.04178	 -35.57573	 6861.20	-22228.08837	-22001.31642	 -4629.56591
2018.00	  60.04178	 -22.24240	 6861.20	-20640.91660	-23181.14664	 -3078.26014
2018.00	  72.03865	  -9.57573	 6861.20	 -7721.18602	-25732.41690	 -1985.81999
2018.00	  72.03865	   2.42427	 6861.20	 -8058.01167	-26483.18382	  -562.78023
2018.00	  72.03865	  14.42427	 6861.20	 -8956.05104	-27035.70901	   464.92285
2018.00	  72.03865	  26.42427	 6861.20	-10383.04721	-27382.51791	  1164.13065
2018.00	  72.03865	  38.42427	 6861.20	-12113.46730	-27711.36993	  1166.37181
2018.00	  72.03865	  50.42427	 6861.20	-13376.24543	-28290.38929	   555.45997
2018.00	  72.03865	  62.42427	 6861.20	-13948.77470	-29160.61065	   -32.75239
2018.00	  72.03865	  74.42427	 6861.20	-14177.18832	-30129.83116	  -350.73777
2018.00	  72.03865	  86.42427	 6861.20	-14243.33811	-30923.21694	  -465.53003
2018.00	  72.03865	  98.42427	 6861.20	-14262.57543	-31210.52476	  -533.55350
2018.00	  72.03865	 110.42427	 6861.20	-14052.89642	-30883.54608	  -868.57599
2018.00	  72.03865	 122.42427	 6861.20	-13109.80341	-30116.23471	 -1245.30735
2018.00	  72.03865	 134.42427	 6861.20	-11702.82980	-29026.23526	  -930.67999
2018.00	  72.03865	 146.42427	 6861.20	-10726.30650	-27662.35942	   142.37107
2018.00	  72.03865	 158.42427	 6861.20	-10652.05250	-26203.06944	  1517.97924
2018.00	  72.03865	 170.42427	 6861.20	-11497.27159	-24832.06899	  2726.20251
2018.00	  72.03865	-177.57573	 6861.20	-12877.30995	-23729.17313	  3418.53640
2018.00	  72.03865	-165.57573	 6861.20	-14236.38149	-23000.11487	  3665.66866
2018.00	  72.03865	-153.57573	 6861.20	-15449.14306	-22600.83471	  3831.86960
2018.00	  72.03865	-141.57573	 6861.20	-16806.00532	-22414.47640	  3999.19421
2018.00	  72.03865	-129.57573	 6861.20	-18412.13681	-22351.58201	  3943.93941
2018.00	  72.03865	-117.57573	 6861.20	-20123.52978	-22292.22993	  3510.77901
2018.00	  72.03865	-105.57573	 6861.20	-21740.49365	-22062.84967	  2528.47972
2018.00	  72.03865	 -93.57573	 6861.20	-22783.31503	-21622.36950	   769.91132
2018.00	  72.03865	 -81.57573	 6861.20	-22572.99139	-21171.28217	 -1596.42624
2018.00	  72.03865	 -69.57573	 6861.20	-20797.30396	-21006.69392	 -3959.26921
2018.00	  72.03865	 -57.57573	 6861.20	-17709.36950	-21386.21938	 -5625.27831
2018.00	  72.03865	 -45.57573	 6861.20	-14031.10271	-22336.73881	 -6118.55202
2018.00	  72.03865	 -33.57573	 6861.20	-10694.86009	-23586.20920	 -5367.43920
2018.00	  72.03865	 -21.57573	 6861.20	 -8492.91093	-24770.33316	 -3772.74578
2018.00	  84.03646	  -9.76928	 6861.20	  5033.59038	-23557.16629	 -2863.69814
2018.00	  84.03646	   1.84363	 6861.20	  5410.08732	-24467.91390	 -1409.72334
2018.00	  84.03646	  13.45653	 6861.20	  5014.45137	-25276.57428	  -251.34892
2018.00	  84.03646	  25.06943	 6861.20	  3815.53166	-26003.93820	   535.38590
2018.00	  84.03646	  36.68234	 6861.20	  2176.75626	-26857.08137	   487.43460
2018.00	  84.03646	  48.29524	 6861.20	  1067.61737	-27964.26167	  -312.48051
2018.00	  84.03646	  59.90814	 6861.20	   897.42042	-29288.51212	 -1103.26519
2018.00	  84.03646	  71.52105	 6861.20	  1271.76067	-30650.06284	 -1426.92195
2018.00	  84.03646	  83.13395	 6861.20	  1780.48896	-31766.09327	 -1241.36974
2018.00	  84.03646	  94.74685	 6861.20	  1958.48826	-32333.50816	  -653.73436
2018.00	  84.03646	 106.35976	 6861.20	  1619.15576	-32238.36641	  -231.67402
2018.00	  84.03646	 117.97266	 6861.20	  1463.55191	-31630.60804	  -239.59574
2018.00	  84.03646	 129.58556	 6861.20	  1812.55304	-30699.72796	    42.31438
2018.00	  84.03646	 141.19846	 6861.20	  1907.98007	-29562.01724	   994.61558
2018.00	  84.03646	 152.81137	 6861.20	  1247.08439	-28357.70208	  2225.97784
2018.00	  84.03646	 164.42427	 6861.20	  -157.17969	-27231.53751	  3343.00639
2018.00	  84.03646	 176.03717	 6861.20	 -2036.56626	-26277.68057	  4005.97438
2018.00	  84.03646	-172.34992	 6861.20	 -3832.73355	-25512.33329	  4131.57502
2018.00	  84.03646	-160.73702	 6861.20	 -5221.81155	-24893.50674	  4055.13767
2018.00	  84.03646	-149.12412	 6861.20	 -6416.69833	-24392.32239	  4046.14379
2018.00	  84.03646	-137.51121	 6861.20	 -7673.82332	-24029.67927	  4004.67630
2018.00	  84.03646	-125.89831	 6861.20	 -8983.83152	-23787.87296	  3788.26942
2018.00	  84.03646	-114.28541	 6861.20	-10352.80442	-23557.47143	  3380.33620
2018.00	  84.03646	-102.67250	 6861.20	-11831.25455	-23169.07371	  2551.60963
2018.00	  84.03646	 -91.05960	 6861.20	-12972.94870	-22546.91130	   916.01657
2018.00	  84.03646	 -79.44670	 6861.20	-12960.62739	-21847.79146	 -1453.59743
2018.00	  84.03646	 -67.83379	 6861.20	-11276.01814	-21344.58010	 -3991.59029
2018.00	  84.03646	 -56.22089	 6861.20	 -7952.35177	-21215.85757	 -5951.28819
2018.00	  84.03646	 -44.60799	 6861.20	 -3640.37532	-21465.52492	 -6710.77743
2018.00	  84.03646	 -32.99508	 6861.20	   520.16145	-21985.34178	 -6094.06771
2018.00	  84.03646	 -21.38218	 6861.20	  3504.46837	-22691.76865	 -4579.56439
2018.00	  95.96354	  -3.96283	 6861.20	 14793.72494	-18422.44984	 -2939.90684
2018.00	  95.96354	   7.65008	 6861.20	 15440.25350	-19125.56406	 -1645.23120
2018.00	  95.96354	  19.26298	 6861.20	 15085.52031	-20007.87525	  -698.96382
2018.00	  95.96354	  30.87588	 6861.20	 14062.34452	-21250.64180	  -566.54179
2018.00	  95.96354	  42.48879	 6861.20	 13364.62555	-22894.33367	 -1373.61795
2018.00	  95.96354	  54.10169	 6861.20	 13773.76273	-24770.36962	 -2448.06823
2018.00	  95.96354	  65.71459	 6861.20	 15074.20670	-26647.49111	 -2983.52105
2018.00	  95.96354	  77.32750	 6861.20	 16580.88573	-28282.65243	 -2730.51786
2018.00	  95.96354	  88.94040	 6861.20	 17595.92633	-29471.77698	 -1727.33862
2018.00	  95.96354	 100.55330	 6861.20	 17507.67006	-30120.69951	  -486.94899
2018.00	  95.96354	 112.16621	 6861.20	 16716.00455	-30241.45262	   210.51023
2018.00	  95.96354	 123.77911	 6861.20	 16188.46540	-29900.00584	   592.14451
2018.00	  95.96354	 135.39201	 6861.20	 15768.28420	-29282.68580	  1411.92042
2018.00	  95.96354	 147.00492	 6861.20	 14789.32759	-28586.20038	  2596.36210
2018.00	  95.96354	 158.61782	 6861.20	 13126.46723	-27911.27802	  3742.53769
2018.00	  95.96354	 170.23072	 6861.20	 10967.61667	-27293.84025	  4542.37291
2018.00	  95.96354	-178.15637	 6861.20	  8712.67774	-26705.80452	  4831.59531
2018.00	  95.96354	-166.54347	 6861.20	  6760.86390	-26065.02125	  4774.52970
2018.00	  95.96354	-154.93057	 6861.20	  5105.45391	-25371.09084	  4678.17591
2018.00	  95.96354	-143.31766	 6861.20	  3527.94869	-24699.97572	  4571.88472
2018.00	  95.96354	-131.70476	 6861.20	  2001.08072	-24111.98568	  4333.46103
2018.00	  95.96354	-120.09186	 6861.20	   572.21917	-23602.43363	  3982.91873
2018.00	  95.96354	-108.47895	 6861.20	  -937.52322	-23108.09834	  3515.67769
2018.00	  95.96354	 -96.86605	 6861.20	 -2594.83463	-22502.89105	  2540.09040
2018.00	  95.96354	 -85.25315	 6861.20	 -3782.38508	-21686.09335	   638.02420
2018.00	  95.96354	 -73.64024	 6861.20	 -3529.70197	-20751.54745	 -2001.61657
2018.00	  95.96354	 -62.02734	 6861.20	 -1340.24077	-19841.92622	 -4573.19151
2018.00	  95.96354	 -50.41444	 6861.20	  2402.00764	-18990.14313	 -6215.71198
2018.00	  95.96354	 -38.80154	 6861.20	  6687.98304	-18256.69097	 -6509.60312
2018.00	  95.96354	 -27.18863	 6861.20	 10429.50226	-17844.83927	 -5691.36003
2018.00	  95.96354	 -15.57573	 6861.20	 13143.40640	-17923.51758	 -4365.19415
2018.00	 107.96135	  -3.38218	 6861.20	 18812.16381	-12446.58756	 -3347.02744
2018.00	 107.96135	   8.61782	 6861.20	 19638.67873	-12692.38808	 -2334.73989
2018.00	 107.96135	  20.61782	 6861.20	 19665.42506	-13582.02228	 -1935.06824
2018.00	 107.96135	  32.61782	 6861.20	 19690.36106	-15167.52046	 -2525.30375
2018.00	 107.96135	  44.61782	 6861.20	 20727.45560	-17183.24647	 -3826.37108
2018.00	 107.96135	  56.61782	 6861.20	 23122.13343	-19267.34163	 -4916.87584
2018.00	 107.96135	  68.61782	 6861.20	 26164.81271	-21173.04503	 -5051.89066
2018.00	 107.96135	  80.61782	 6861.20	 28901.58602	-22801.39433	 -4147.56566
2018.00	 107.96135	  92.61782	 6861.20	 30512.29526	-24169.80672	 -2459.87213
2018.00	 107.96135	 104.61782	 6861.20	 30631.74665	-25278.35696	  -772.27761
2018.00	 107.96135	 116.61782	 6861.20	 30012.79568	-25942.44987	   321.38949
2018.00	 107.96135	 128.61782	 6861.20	 29358.45449	-26076.18672	  1271.38771
2018.00	 107.96135	 140.61782	 6861.20	 28388.65713	-25917.13633	  2498.31829
2018.00	 107.96135	 152.61782	 6861.20	 26781.50171	-25695.21146	  3796.73059
2018.00	 107.96135	 164.61782	 6861.20	 24564.48095	-25468.26901	  4860.64404
2018.00	 107.96135	 176.61782	 6861.20	 22007.42424	-25203.10882	  5467.06688
2018.00	 107.96135	-171.38218	 6861.20	 19488.10357	-24823.63925	  5647.84672
2018.00	 107.96135	-159.38218	 6861.20	 17139.86058	-24301.19681	  5642.45680
2018.00	 107.96135	-147.38218	 6861.20	 14877.30786	-23702.49414	  5545.95704
2018.00	 107.96135	-135.38218	 6861.20	 12711.62571	-23097.00792	  5289.62355
2018.00	 107.96135	-123.38218	 6861.20	 10743.86155	-22477.91587	  4898.14132
2018.00	 107.96135	-111.38218	 6861.20	  8858.67812	-21831.45472	  4452.29421
2018.00	 107.96135	 -99.38218	 6861.20	  6819.77544	-21133.81129	  3706.53258
2018.00	 107.96135	 -87.38218	 6861.20	  4897.15519	-20273.95800	  2112.33218
2018.00	 107.96135	 -75.38218	 6861.20	  4109.98746	-19144.11721	  -457.57128
2018.00	 107.96135	 -63.38218	 6861.20	  5269.75679	-17750.99335	 -3202.07574
2018.00	 107.96135	 -51.38218	 6861.20	  8060.02866	-16201.51556	 -5081.32567
2018.00	 107.96135	 -39.38218	 6861.20	 11432.07681	-14685.85785	 -5679.32767
2018.00	 107.96135	 -27.38218	 6861.20	 14514.56585	-13462.84416	 -5309.42523
2018.00	 107.96135	 -15.38218	 6861.20	 17030.22808	-12706.95832	 -4449.37362
2018.00	 119.95822	  -1.38218	 6861.20	 19141.00443	 -9010.13289	 -3291.99494
2018.00	 119.95822	  11.95115	 6861.20	 19691.86588	 -9157.56838	 -3082.98381
2018.00	 119.95822	  25.28449	 6861.20	 20440.51304	-10183.45380	 -3889.59110
2018.00	 119.95822	  38.61782	 6861.20	 22488.39091	-11728.54963	 -5535.29883
2018.00	 119.95822	  51.95115	 6861.20	 26296.63593	-13290.73611	 -7067.87993
2018.00	 119.95822	  65.28449	 6861.20	 31116.33985	-14673.12455	 -7433.85156
2018.00	 119.95822	  78.61782	 6861.20	 35624.79206	-15977.54691	 -6407.60850
2018.00	 119.95822	  91.95115	 6861.20	 38852.44343	-17357.25325	 -4355.51028
2018.00	 119.95822	 105.28449	 6861.20	 40340.86608	-18798.70358	 -2050.11051
2018.00	 119.95822	 118.61782	 6861.20	 40537.99563	-19917.46421	  -121.62491
2018.00	 119.95822	 131.95115	 6861.20	 39967.68138	-20501.68232	  1610.15564
2018.00	 119.95822	 145.28449	 6861.20	 38619.53033	-20780.42205	  3321.88735
2018.00	 119.95822	 158.61782	 6861.20	 36469.72551	-20978.94436	  4836.41863
2018.00	 119.95822	 171.95115	 6861.20	 33691.77727	-21149.47642	  5902.09674
2018.00	 119.95822	-174.71551	 6861.20	 30666.99567	-21218.34090	  6434.24723
2018.00	 119.95822	-161.38218	 6861.20	 27661.19989	-21141.28259	  6617.04148
2018.00	 119.95822	-148.04885	 6861.20	 24711.19144	-20960.62309	  6582.31649
2018.00	 119.95822	-134.71551	 6861.20	 21873.41676	-20668.12695	  6352.44233
2018.00	 119.95822	-121.38218	 6861.20	 19167.38733	-20193.23190	  5994.80052
2018.00	 119.95822	-108.04885	 6861.20	 16405.04935	-19542.18403	  5505.93663
2018.00	 119.95822	 -94.71551	 6861.20	 13462.53640	-18786.70008	  4458.69636
2018.00	 119.95822	 -81.38218	 6861.20	 11000.84455	-17829.05625	  2285.91827
2018.00	 119.95822	 -68.04885	 6861.20	 10241.94643	-16429.87892	  -680.08757
2018.00	 119.95822	 -54.71551	 6861.20	 11523.00988	-14604.86931	 -3191.22260
2018.00	 119.95822	 -41.38218	 6861.20	 13878.82479	-12687.09015	 -4380.78207
2018.00	 119.95822	 -28.04885	 6861.20	 16176.44010	-10997.40204	 -4443.38497
2018.00	 119.95822	 -14.71551	 6861.20	 17985.74507	 -9708.01653	 -3946.36109
2018.00	 131.82612	   1.22652	 6861.20	 18953.51011	 -8717.64582	 -3554.50331
2018.00	 131.82612	  16.87869	 6861.20	 19855.92087	 -8995.20717	 -4667.99571
2018.00	 131.82612	  32.53086	 6861.20	 22358.46080	 -9669.48536	 -6791.05162
2018.00	 131.82612	  48.18304	 6861.20	 27098.57914	-10124.80212	 -8871.26785
2018.00	 131.82612	  63.83521	 6861.20	 33341.30109	-10281.99345	 -9568.01654
2018.00	 131.82612	  79.48738	 6861.20	 39498.02930	-10570.06748	 -8416.81984
2018.00	 131.82612	  95.13956	 6861.20	 44272.65391	-11318.52460	 -5859.50998
2018.00	 131.82612	 110.79173	 6861.20	 46965.88710	-12434.02621	 -2750.52159
2018.00	 131.82612	 126.44391	 6861.20	 47656.92683	-13492.97155	   215.39952
2018.00	 131.82612	 142.09608	 6861.20	 46731.62703	-14338.10346	  2851.67504
2018.00	 131.82612	 157.74825	 6861.20	 44514.64203	-15111.98153	  5018.03586
2018.00	 131.82612	 173.40043	 6861.20	 41408.97423	-15887.73213	  6507.60106
2018.00	 131.82612	-170.94740	 6861.20	 37910.50769	-16575.16868	  7296.27477
2018.00	 131.82612	-155.29522	 6861.20	 34364.57773	-17098.24731	  7588.08640
2018.00	 131.82612	-139.64305	 6861.20	 30861.92390	-17413.64029	  7601.17090
2018.00	 131.82612	-123.99088	 6861.20	 27272.36227	-17461.60671	  7456.29633
2018.00	 131.82612	-108.33870	 6861.20	 23340.24368	-17280.28889	  7016.95590
2018.00	 131.82612	 -92.68653	 6861.20	 19199.27549	-16963.47064	  5657.35619
2018.00	 131.82612	 -77.03435	 6861.20	 15989.02892	-16264.28907	  2919.87861
2018.00	 131.82612	 -61.38218	 6861.20	 14955.79442	-14791.15420	  -332.88717
2018.00	 131.82612	 -45.73001	 6861.20	 15880.86493	-12736.85078	 -2571.59312
2018.00	 131.82612	 -30.07783	 6861.20	 17326.27571	-10753.95495	 -3345.17692
2018.00	 131.82612	 -14.42566	 6861.20	 18355.62926	 -9319.00312	 -3383.10861
2018.00	 143.52400	   6.00912	 6861.20	 20902.10598	-10363.38630	 -4738.44225
2018.00	 143.52400	  26.00912	 6861.20	 23390.32787	-10070.20570	 -7494.00438
2018.00	 143.52400	  46.00912	 6861.20	 28713.35379	 -9068.36374	-10289.69346
2018.00	 143.52400	  66.00912	 6861.20	 36137.37627	 -7388.13699	-11189.98392
2018.00	 143.52400	  86.00912	 6861.20	 43593.11439	 -5990.56168	 -9382.88771
2018.00	 143.52400	 106.00912	 6861.20	 49057.43419	 -5619.96508	 -5516.20622
2018.00	 143.52400	 126.00912	 6861.20	 51424.28784	 -6278.11998	  -978.12801
2018.00	 143.52400	 146.00912	 6861.20	 50865.40009	 -7575.45067	  3063.31061
2018.00	 143.52400	 166.00912	 6861.20	 48234.02926	 -9240.19388	  6031.07806
2018.00	 143.52400	-173.99088	 6861.20	 44506.61360	-10981.86388	  7783.25185
2018.00	 143.52400	-153.99088	 6861.20	 40372.87127	-12508.09982	  8606.34214
2018.00	 143.52400	-133.99088	 6861.20	 35963.52734	-13715.18298	  8929.03375
2018.00	 143.52400	-113.99088	 6861.20	 30966.65462	-14741.01160	  8744.24609
2018.00	 143.52400	 -93.99088	 6861.20	 25585.29355	-15628.82538	  7244.61463
2018.00	 143.52400	 -73.99088	 6861.20	 21374.74538	-15729.33676	  3946.55170
2018.00	 143.52400	 -53.99088	 6861.20	 19701.39153	-14406.33792	   305.84619
2018.00	 143.52400	 -33.99088	 6861.20	 19779.67745	-12386.97285	 -1922.30797
2018.00	 143.52400	 -13.99088	 6861.20	 20155.64357	-10916.71408	 -3119.78281
2018.00	 155.25984	  14.47066	 6861.20	 26464.17717	-11715.51242	 -7111.69480
2018.00	 155.25984	  42.16297	 6861.20	 31424.22318	 -8831.85187	-11049.22541
2018.00	 155.25984	  69.85528	 6861.20	 39268.01355	 -4343.14108	-12145.95359
2018.00	 155.25984	  97.54759	 6861.20	 46998.21193	  -464.13160	 -8771.46601
2018.00	 155.25984	 125.23989	 6861.20	 51412.33039	   769.04162	 -2551.85119
2018.00	 155.25984	 152.93220	 6861.20	 51546.58873	  -732.28701	  3513.07053
2018.00	 155.25984	-179.37549	 6861.20	 48629.82626	 -3741.46529	  7636.09786
2018.00	 155.25984	-151.68318	 6861.20	 44137.32037	 -7073.35235	  9733.50600
2018.00	 155.25984	-123.99088	 6861.20	 38616.79721	-10353.56548	 10314.85503
2018.00	 155.25984	 -96.29857	 6861.20	 32487.98622	-13476.93966	  8764.24153
2018.00	 155.25984	 -68.60626	 6861.20	 27576.93830	-15116.58264	  4681.56719
2018.00	 155.25984	 -40.91395	 6861.20	 25268.34800	-14468.49349	   257.68740
2018.00	 155.25984	 -13.22165	 6861.20	 24857.34382	-13132.44937	 -3237.70758
2018.00	 167.29173	  40.18495	 6861.20	 36344.74952	 -7503.60572	-11570.66644
2018.00	 167.29173	  91.61352	 6861.20	 44185.46073	  2972.82075	-10381.82988
2018.00	 167.29173	 143.04209	 6861.20	 48630.06685	  7011.73858	   210.93159
2018.00	 167.29173	-165.52934	 6861.20	 46468.05615	  1758.16998	  9275.62807
2018.00	 167.29173	-114.10077	 6861.20	 40379.95857	 -7101.94471	 11187.67907
2018.00	 167.29173	 -62.67219	 6861.20	 34436.62460	-13698.07177	  5226.05957
2018.00	 167.29173	 -11.24362	 6861.20	 32540.15252	-13827.86651	 -3897.87377
2018.00	 180.00000	   0.00000	 6861.20	 41536.68996	-10225.64516	    -2.53057
